Feature 1,Feature 2,Feature 3,Feature 4,Feature 5,Feature 6,Feature 7,Feature 8,Feature 9
1,131,-91,2018,-75,4000,-4000,-1999,267
1,93,-233,2917,-78,4000,-4000,-2549,251
1,100,-369,3007,-84,4000,-4000,-4000,195
1,-108,-399,1770,-86,3232,-4000,-4000,186
1,-342,-192,815,-63,2759,-4000,-4000,140
1,-420,-4,-17,-22,2581,-4000,-4000,76
1,-473,40,-523,63,2386,-4000,-4000,154
1,-323,78,-317,124,1994,-4000,-4000,239
1,-91,139,-761,105,1669,-4000,-3637,241
1,107,56,-107,79,1971,-3848,-1684,296
1,334,0,2093,-105,2101,-3643,238,131
1,487,21,2095,-216,2101,-3405,1353,-450
1,537,-37,-146,-251,1850,-3144,2036,-909
1,281,-47,-1554,-359,420,-2895,2760,-1296
1,245,-55,-2241,-279,-1121,-2612,3754,-1709
1,277,8,-2318,-133,-2436,-2382,4000,-1831
1,102,98,-2497,-40,-4000,-2095,4000,-1911
1,-84,180,-2342,94,-4000,-1755,4000,-1820
1,-255,225,-1274,154,-3387,-1375,4000,-1204
1,-286,172,457,121,-1703,-875,4000,-419
1,-453,247,1900,142,-268,-466,4000,318
1,-700,162,2095,189,692,-200,4000,475
1,-875,10,2875,251,1328,-33,4000,486
1,-936,-50,2412,292,1319,107,4000,392
1,-814,-131,445,260,739,260,4000,-166
1,-618,-94,-1552,229,-82,267,4000,-740
1,-413,-101,-2566,203,-1422,136,4000,-1034
1,-210,-111,-2538,85,-2704,-30,4000,-858
1,105,-57,-1348,-42,-3593,48,4000,-622
1,436,-118,858,-72,-4000,276,4000,-319
1,452,-224,608,-71,-4000,495,4000,-248
1,245,-130,408,-150,-3990,818,4000,-352
1,32,-96,1283,-233,-3131,1051,4000,-454
1,39,-118,2054,-214,-1593,1519,4000,-506
1,211,-215,2917,4,487,1929,4000,-254
1,526,-206,2194,134,1026,2116,4000,198
1,827,-104,1729,129,1205,2123,4000,652
1,896,0,2326,77,1077,2084,4000,1047
1,920,21,2602,129,707,2084,4000,1150
1,994,136,-645,236,235,2169,4000,1313
1,-20,309,-2370,381,-2147,1539,4000,1142
1,-9,217,-356,434,-1261,1449,4000,1468
1,-59,-131,2680,199,-1096,880,3983,-1908
1,-80,-152,1810,252,-942,867,3689,-1884
1,-144,-78,394,167,-227,888,2969,-1469
1,-598,-22,-1321,69,1213,871,1280,-753
1,-1260,-5,-2431,2,3623,941,-939,-385
1,-1370,33,-1297,-43,4000,966,-4000,-500
1,-1264,-42,207,-210,4000,919,-4000,-753
1,-925,-264,1633,-291,4000,798,-4000,-1013
1,-649,-295,2669,-319,4000,561,-4000,-1330
1,-445,-202,2225,-214,4000,195,-4000,-1120
1,6,-64,784,-137,1669,-173,-4000,-716
1,595,111,-1348,-179,3150,-443,-4000,-447
1,1112,-23,-2538,-2,4000,-979,-4000,695
1,695,-128,-1240,153,4000,-905,-4000,1138
1,436,-266,-737,111,2872,-826,-4000,1578
1,577,-375,-737,104,-4000,-770,-4000,1388
1,1112,-352,18,88,-4000,-679,-4000,1091
1,1220,-383,-178,-141,-4000,-549,-4000,1205
1,1086,-220,237,-239,-4000,-351,-4000,1352
1,920,-48,2278,-234,-4000,-159,-4000,1452
1,113,110,2875,-206,-4000,-17,-4000,1270
1,-523,395,2356,-212,-4000,7,-4000,1216
1,-409,521,2398,-198,4000,-15,-4000,1236
1,-457,553,2087,-246,4000,-22,-1962,1258
1,-554,441,1509,-342,3851,-85,728,1372
1,-575,199,1582,-336,4000,-132,1864,1513
1,-523,-104,2343,-320,4000,-212,3038,1663
1,-497,-166,1574,-182,4000,-354,3475,1793
1,-531,93,-568,69,4000,-537,3286,2054
1,-232,335,-1036,154,4000,-773,1864,2249
1,202,420,-746,85,4000,-979,-101,2437
1,226,428,-22,-19,-4000,-1044,-2312,2753
1,0,344,-368,-104,-4000,-917,-4000,3226
1,-193,75,-711,-198,-4000,-732,-4000,3845
1,-303,-173,-373,-261,-4000,-516,-4000,4000
1,-95,-236,-1227,-210,-3172,-240,-4000,4000
1,183,-160,-776,-32,4000,-51,-4000,4000
1,341,-213,419,118,4000,56,-4000,3161
1,72,-264,310,193,4000,105,-4000,2563
1,-29,-161,-776,292,4000,-6,-4000,2422
1,106,-65,-2039,264,3623,-260,-4000,2966
1,554,-106,-2346,169,-4000,-1230,-4000,3666
1,329,53,-1811,-37,-4000,-1682,-4000,2954
1,145,27,-697,-148,-4000,-2107,-4000,1496
1,69,27,694,-314,-4000,-2382,-4000,-164
1,-155,17,1674,-344,-4000,-2351,-4000,-1986
1,-360,5,3045,-159,-4000,-2008,-4000,-3439
1,-553,103,2526,272,-4000,183,-4000,-2811
1,-527,103,-348,378,-4000,620,-4000,-2223
1,-518,59,-1202,402,-4000,896,-4000,-1849
1,-321,-7,-1106,248,-4000,817,-4000,-2576
1,-250,-142,-1101,252,-4000,599,-4000,-2556
1,-71,-237,-753,172,-4000,422,-4000,-2975
1,95,-173,541,-31,-4000,283,-4000,-3089
1,-8,-4,306,-46,-4000,209,-4000,-3178
1,5,46,-776,-81,-4000,115,-3532,-3319
1,-27,20,-1341,9,-2904,114,-2247,-2324
1,-60,1,-234,43,-1691,58,-1095,-2395
1,18,24,345,-11,-2484,-98,134,-2217
1,41,158,-935,-88,-4000,-287,1320,-2103
1,66,189,-1215,-108,-4000,-454,2321,-2295
1,93,57,-2163,-57,-4000,-535,3294,-2181
1,132,59,-2373,-64,-4000,-510,4000,-2218
1,90,58,-2086,-26,-4000,-394,4000,-2116
1,52,108,-1974,32,-4000,-407,4000,-2103
1,23,87,-499,113,-4000,-533,4000,-1925
1,-13,-14,-152,163,-4000,-718,4000,-1802
1,-7,-118,392,132,-4000,-901,4000,-1577
1,26,-162,1114,66,-4000,-891,4000,-1315
1,110,44,1114,-5,-4000,-615,4000,-1013
1,110,32,671,-97,-4000,-57,4000,-659
1,86,-56,445,-141,-3706,611,4000,-312
1,50,-32,638,-183,-3408,1279,4000,120
1,20,-58,248,-175,-3148,1734,4000,535
1,21,-36,157,-78,-1919,1864,4000,922
1,72,-29,183,-36,3167,1734,4000,1236
1,49,-25,980,32,4000,1449,4000,1468
1,34,11,1444,44,4000,1148,4000,1606
1,55,41,580,66,4000,871,4000,1663
1,74,40,-479,122,4000,464,3038,1654
1,129,40,-1344,166,4000,-32,1027,1698
1,117,21,-1557,144,4000,-396,-1356,1704
1,62,0,-1414,81,4000,-454,-4000,1592
1,37,-7,-1015,116,4000,-147,-4000,1468
1,32,12,-544,101,4000,220,-4000,1531
1,9,34,89,75,4000,85,-1690,1584
1,39,-1,622,17,4000,-428,2452,1476
1,32,-35,892,-75,4000,-1041,4000,1150
1,-9,-43,1114,-136,4000,-1717,4000,695
1,-19,-16,1114,-232,4000,-2367,4000,182
1,-40,4,1119,-246,4000,-2951,4000,-390
1,-8,18,1257,-145,4000,-3127,4000,-999
1,-25,38,1062,26,4000,-2819,4000,-1642
1,-79,-30,686,118,4000,-2060,4000,-2134
1,-177,-30,516,136,4000,-812,4000,-2375
1,-178,-15,30,134,4000,722,4000,-2375
1,-88,-23,-104,55,4000,2363,4000,-2324
1,-118,-37,63,20,4000,4000,4000,-2103
1,-121,-57,34,-18,4000,4000,4000,-1599
1,-126,-60,219,-171,4000,4000,4000,-1296
1,-162,-81,132,-255,4000,4000,4000,-946
1,-146,-65,6,-299,3998,4000,4000,-639
1,-94,14,16,-263,-587,4000,4000,-490
1,8,154,-76,-65,-4000,4000,4000,-248
1,82,150,-190,215,-4000,4000,4000,-104
1,82,81,-314,386,-4000,4000,4000,164
1,90,81,-221,394,-4000,4000,4000,377
1,84,49,-190,480,-4000,4000,4000,293
1,39,1,-212,561,-4000,4000,4000,194
1,69,-1,-129,639,-4000,4000,278,302
1,90,87,-3,600,-4000,4000,-1524,535
1,41,72,110,215,-4000,4000,-1767,540
1,-42,72,74,-79,-4000,4000,-1849,330
1,-16,73,63,-175,-4000,4000,-2422,195
1,95,38,55,-232,-4000,4000,-163,348
1,142,13,9,-279,-4000,4000,4000,751
1,155,-79,-91,-22,-4000,3131,4000,1185
1,70,-169,-83,447,-4000,2515,4000,1598
1,23,-181,-31,663,-4000,1126,4000,1895
1,-15,-138,1,626,-4000,-77,-2642,1857
1,-47,-84,52,390,-4000,-228,-4000,1727
1,11,-35,-153,-65,-4000,-1290,-4000,1561
1,-59,-272,-13,-725,-4000,-1782,-4000,564
1,-51,-234,16,-426,-4000,-2037,-4000,499
1,-92,-178,-63,-332,-4000,-1734,-4000,551
1,-71,-98,9,-18,-4000,-1487,-4000,457
1,-21,-103,16,-161,-4000,-1200,-4000,312
1,-44,-57,-61,-170,-4000,-1444,-4000,120
1,-9,101,-43,162,-3053,-2025,-4000,23
1,-38,172,-97,443,-2110,-2640,-4000,-96
1,-84,212,-91,687,-1390,-3910,-4000,-418
1,-17,164,-5,699,-1316,-4000,-4000,-899
1,-13,111,36,379,-2163,-3530,-4000,-1131
1,21,127,59,298,-2969,-2860,-4000,-1217
1,35,92,109,381,-2990,-2597,-4000,-1318
1,1,69,116,598,-3172,-2274,-2855,-1298
1,24,74,48,569,-4000,-1902,-1657,-1238
1,16,16,26,296,-4000,-1781,-1262,-1257
1,-5,-19,2,286,-4000,-2023,-75,-1428
1,-11,-51,-1,392,-4000,-2819,685,-1531
1,10,-53,36,327,-4000,-4000,1931,-1589
1,32,-69,-43,321,-4000,-4000,3205,-1498
1,21,9,-92,345,-4000,-4000,4000,-1518
1,11,99,-163,404,-3799,-4000,4000,-1596
1,-4,124,-243,437,-3517,-4000,4000,-1738
1,4,140,-255,372,-3387,-4000,4000,-1925
1,-11,68,-288,360,-3185,-4000,4000,-1917
1,14,79,-192,365,-2668,-4000,4000,-1957
1,15,87,-98,459,-2147,-4000,4000,-1664
1,3,68,-29,378,-1817,-4000,4000,-1274
1,90,36,-40,219,-1803,-4000,4000,-1000
1,249,7,-12,242,-1524,-3524,4000,-744
1,368,13,42,207,-1422,-3968,4000,-730
1,269,-3,28,163,-1267,-4000,4000,-614
1,166,-19,88,177,-85,-4000,4000,-521
1,168,-20,171,27,1733,-4000,4000,-394
1,234,40,238,-232,3477,-4000,4000,-253
1,123,30,135,-473,4000,-4000,4000,-179
1,-141,82,-87,-401,4000,-4000,4000,-129
1,-136,85,-151,27,4000,-4000,4000,-93
1,-157,26,-25,231,4000,-4000,4000,-52
1,-301,16,73,305,4000,-1780,4000,-108
1,-378,-7,106,207,4000,117,4000,-168
1,-386,-14,45,-198,4000,953,4000,-252
1,-417,-3,-19,-570,4000,1537,4000,-366
1,-435,11,-7,-695,4000,2255,4000,-547
1,-310,-36,-97,-776,2710,3101,4000,-791
1,-32,65,301,-261,4000,1710,82,-1542
1,14,55,463,387,4000,179,1223,-1583
1,23,-46,-86,384,4000,-4000,-4000,-2193
1,-49,-60,-129,-60,3016,-4000,-4000,-2746
1,-68,-59,-133,-397,2622,-4000,-4000,-3154
1,-318,-101,-166,-654,2569,-4000,-4000,-3504
1,-510,-36,-60,-589,-814,2056,-4000,-3799
1,-375,-4,-3,-289,-876,4000,-4000,1112
1,-207,-4,-5,-112,-2134,4000,-4000,4000
1,-78,-37,-20,15,-2641,4000,-4000,4000
1,-165,-44,-76,183,-2534,4000,-4000,4000
1,-193,-20,-98,158,-4000,4000,-4000,4000
1,-177,1,-114,46,-4000,2840,-4000,4000
1,-136,64,-182,-149,-4000,3101,-4000,4000
1,-62,91,-165,-228,-4000,4000,-4000,4000
1,-34,47,-102,-37,-4000,4000,-4000,4000
1,38,36,-54,93,-4000,2971,-3051,3912
1,147,64,-13,194,-4000,611,-66,994
1,188,81,4,156,-4000,611,1922,-883
1,139,84,-40,90,-4000,376,2517,-2003
1,151,42,-114,60,-4000,-106,2047,-2735
1,176,42,-151,126,-3730,-651,1098,-3386
1,204,57,-81,234,-2643,-1123,939,-3659
1,260,72,23,268,-1398,-715,1255,-3846
1,234,85,11,115,-1338,219,1931,-3858
1,182,78,8,-92,-1239,1051,3294,-3779
1,49,64,-63,-221,-9,1649,4000,-3333
1,-84,46,-133,-137,772,2060,4000,-2811
1,-58,73,-45,111,3982,2295,4000,-2230
1,-51,103,3,169,4000,2442,4000,-1599
1,-5,147,68,219,4000,2382,4000,-1168
1,-21,107,85,191,4000,2255,4000,-753
1,-63,24,142,20,4000,2356,3551,-480
1,-17,29,237,-79,4000,2580,4000,-378
1,-36,3,180,-93,4000,2356,4000,-494
1,-71,-23,85,-31,4000,2102,4000,-435
1,-136,-33,-1,65,4000,2319,4000,-418
1,-100,-26,62,98,4000,2243,4000,-899
1,-4,-35,85,22,4000,1862,4000,-1662
1,-42,-104,31,-8,4000,1755,4000,-2580
1,-84,-116,-29,-129,4000,1734,4000,-3349
1,-170,-118,-14,-315,4000,1929,4000,-3862
1,-170,-76,20,-271,4000,2255,3400,-4000
1,-123,-20,-1,-129,4000,2422,3086,-4000
1,-93,19,15,-28,4000,2905,3062,-4000
1,25,71,-99,-1,4000,3292,3075,-4000
1,2,46,-128,81,4000,3426,3038,-4000
1,6,17,-84,95,4000,3018,2843,-3931
1,53,-21,-77,107,4000,2060,2682,-3264
1,76,-10,-53,134,4000,1222,2358,-2746
1,88,-27,-46,111,4000,628,1711,-2474
1,64,-83,-6,112,1710,189,866,-2635
1,72,-122,-48,69,-1059,-564,48,-2932
1,61,-153,-75,62,-3600,-1290,-876,-3237
1,61,-111,-81,43,-4000,-1302,-1830,-3736
1,80,-127,-71,57,-4000,-1200,-1989,-4000
1,80,-92,11,44,-4000,-1847,-1462,-4000
1,51,-31,42,3,-4000,-2178,-786,-4000
1,36,-67,97,2,-4000,-2246,-723,-4000
1,4,-78,53,-39,-4000,-1847,-1524,-4000
1,-27,-87,17,-34,-4000,-831,-2441,-4000
1,-54,-101,-33,-41,-4000,13,-2966,-4000
1,-81,-88,-121,-59,-4000,254,-2408,-4000
1,-13,-80,-82,-57,-4000,348,-1185,-4000
1,109,-86,-98,-82,-2641,1180,-484,-4000
1,228,-135,-129,-38,-182,1899,-876,-4000
1,408,-165,-168,6,460,2227,-2043,-4000
1,519,-118,-204,-3,-288,2359,-2707,-4000
1,442,-93,-163,27,-2550,2556,-2512,-4000
1,395,-57,-107,66,-4000,2188,-1767,-3858
1,285,-8,-97,122,-4000,757,-1254,-3319
1,195,5,-30,205,-4000,-665,-1766,-2649
1,315,50,66,174,-4000,-1430,-2573,-1860
1,448,55,61,80,-4000,-1355,-3648,-1217
1,250,3,47,-15,-4000,-705,-4000,-556
1,-124,0,73,-144,-4000,201,-4000,140
1,-535,-12,161,-206,-4000,919,-3792,817
1,-1146,36,167,-232,-4000,1331,-2667,1513
1,-1479,46,93,-258,-4000,1531,-1332,2054
1,-1202,53,24,-218,-4000,1191,-811,3346
1,-844,98,13,-122,-4000,540,-1461,3979
1,-396,120,36,23,-4000,-170,-2061,4000
1,204,179,75,50,-4000,-698,-1950,4000
1,235,168,31,-5,-4000,-1095,-1728,4000
1,263,136,28,41,-4000,-1420,-1641,4000
1,186,121,446,-23,-4000,-1715,-1397,4000
1,234,122,2087,-13,-4000,-1961,-745,4000
1,460,120,2917,53,-4000,-2024,380,4000
1,263,75,1314,-1,-4000,-1800,824,4000
1,334,89,41,-159,-4000,-1682,685,4000
1,649,60,-616,-288,-4000,-1648,795,4000
1,711,57,-1251,-328,-2134,-1587,1461,4000
1,501,48,-1427,-255,2255,-1460,2358,4000
1,442,40,-1286,-130,4000,-1229,2444,4000
1,458,69,-1041,-85,4000,-1200,1864,4000
1,-132,38,-976,-114,4000,-1490,1214,4000
1,-598,-5,-761,-39,4000,-1900,367,4000
1,-474,-41,-513,120,4000,-2351,-1302,4000
1,-533,-107,-444,238,4000,-2934,-3326,4000
1,-641,-172,-642,394,4000,-3524,-4000,4000
1,-396,-155,-693,415,4000,-4000,-4000,4000
1,-240,-150,-649,329,4000,-4000,-4000,3845
1,-94,-98,-517,280,4000,-4000,-4000,3226
1,-114,-49,-315,209,4000,-4000,-3977,2704
1,-147,25,-129,187,4000,-4000,-3455,2160
1,8,77,128,92,4000,-4000,-2612,1704
1,20,54,3,47,4000,-4000,-1885,1293
1,1,87,55,77,4000,-4000,-2270,941
1,-23,103,205,-11,4000,-4000,-3119,621
1,70,80,211,-124,4000,-4000,-2966,239
1,-17,-33,434,-202,4000,-4000,-1576,-79
1,-154,-92,266,-336,4000,-4000,-157,-327
1,-126,-80,-156,-517,4000,-4000,532,-500
1,28,-101,-80,-435,4000,-3911,380,-687
1,594,-155,400,-210,4000,-3244,-355,-870
1,1147,-161,579,-148,4000,-2250,-1260,-1059
1,1319,-67,841,-96,4000,-1330,-2082,-1274
1,1018,-19,882,6,4000,-1050,-2735,-1534
1,908,-8,724,95,4000,-722,-2508,-1921
1,1081,-46,710,142,4000,274,-1200,-2217
1,240,-73,761,197,4000,1722,181,-2409
1,-521,7,686,218,4000,2940,1092,-2509
1,-547,87,103,307,4000,4000,1314,-2536
1,-1025,95,-320,422,4000,4000,1084,-2543
1,-940,172,-564,455,4000,4000,640,-2575
1,-700,262,-572,496,4000,4000,455,-2543
1,-738,233,-491,358,4000,4000,1164,-2377
1,-801,146,-276,24,4000,4000,2429,-2302
1,-1031,93,-5,-224,4000,4000,3475,-2230
1,-760,146,171,-365,4000,4000,4000,-2187
1,-407,168,533,-373,4000,4000,4000,-2187
1,-99,127,801,-466,4000,4000,4000,-2140
1,147,82,148,-505,4000,4000,3429,-2104
1,522,54,-674,-193,1704,4000,2635,-2140
1,668,37,-906,59,-1518,4000,2031,-2206
1,465,-46,-1321,431,-1506,4000,1540,-2254
1,563,-211,-810,681,-746,4000,1467,-2181
1,498,-242,-110,533,-94,4000,1599,-2063
1,52,-208,364,248,3945,4000,1538,-1921
1,90,-80,451,-98,4000,3611,1190,-1837
1,674,-25,686,-303,2060,3296,824,-1662
1,399,15,793,-515,-2057,3212,555,-1497
1,-512,-5,830,-652,-3612,3166,521,-1363
1,-584,-24,557,-719,-2277,3849,391,-1298
1,-485,22,644,-676,-4000,4000,-24,-1274
1,-109,127,2005,-523,-4000,4000,-420,-1270
1,-250,130,2225,-171,-4000,3617,-1641,-1208
1,-306,126,-490,-265,-4000,3283,-2210,-1186
1,439,63,-2204,-397,-4000,3199,-2502,-1204
1,824,34,-825,-51,-4000,2377,-1903,-1083
1,-34,-19,-389,-47,-4000,2188,-1588,-875
1,-828,-20,-620,-59,-4000,1982,-1093,-708
1,342,-203,-568,533,-4000,-240,-483,448
1,-124,-34,1161,329,-4000,-2439,1845,947
1,-1147,-218,-173,-149,-4000,-4000,4000,265
1,465,-94,-711,-224,-4000,-4000,4000,134
1,538,8,-2578,240,4000,-4000,4000,-673
1,-105,26,-2398,179,4000,-3895,4000,-753
1,-571,239,-1779,63,4000,-3244,4000,-846
1,-759,294,-566,-48,4000,-2626,4000,-948
1,-1204,301,-570,-163,4000,-1848,4000,-1039
1,-1294,400,119,-324,4000,-936,4000,-1168
1,-807,408,295,-558,4000,38,4000,-1321
1,1156,39,1347,-757,4000,1929,1996,-914
1,1238,-179,1900,-511,4000,2056,1670,-726
1,711,-207,1328,-366,4000,1970,-724,-427
1,510,-215,410,-160,4000,1677,-4000,-223
1,342,-207,170,-141,4000,1474,-4000,43
1,262,-82,663,-312,4000,1277,-4000,369
1,104,-140,1757,-456,4000,1092,-4000,609
1,113,-101,2729,-456,4000,986,-4000,876
1,199,-126,2486,-373,4000,693,-4000,1049
1,-53,-50,1247,-223,4000,293,-4000,1216
1,-221,64,-5,-202,4000,-14,-4000,1392
1,-461,1,-1126,-237,4000,-53,-4000,1476
1,-319,58,-2239,-171,4000,49,-4000,1533
1,35,207,-2415,0,4000,-158,-4000,1525
1,436,354,-2475,191,4000,-773,-4000,1443
1,759,212,-2253,272,4000,-1330,-4000,1281
1,855,44,-948,309,4000,-1546,-4000,1047
1,908,-67,-98,272,4000,-1701,-4000,621
1,784,-159,-401,290,4000,-1656,-4000,147
1,668,-178,-409,317,4000,-1574,-4000,-281
1,540,-356,85,323,-372,-1737,-4000,-573
1,431,-448,-342,195,-4000,-1701,-4000,-817
1,182,-598,-190,-11,-4000,-1310,-4000,-1078
1,-99,-582,410,19,-4000,-758,-4000,-1315
1,-155,-188,838,194,-4000,-285,-4000,-1642
1,-351,-28,1182,303,-4000,250,-4000,-1860
1,-521,-179,1509,292,-4000,544,-4000,-1884
1,-476,-181,1704,282,-4000,669,-4000,-1723
1,-440,-80,1283,146,-4000,896,-4000,-1270
1,-333,-5,1387,169,-4000,966,-4000,-778
1,-237,-35,1249,394,-4000,966,-4000,-280
1,-221,-57,736,513,-4000,980,-2615,330
1,-190,-54,-212,655,-4000,1118,-832,938
1,-158,26,-782,687,-4000,1417,-1136,1411
1,-113,201,-419,642,-4000,1734,-2402,1915
1,-191,213,-380,533,-4000,1799,-3273,2498
1,-236,191,-434,410,-4000,1909,-2792,3079
1,-205,117,-739,345,-4000,2182,-1337,3548
1,-258,53,-1016,243,-4000,2230,1418,3747
1,-193,-42,-1036,85,-4000,2159,4000,3831
1,-155,-168,-1138,-59,-1731,2115,4000,3291
1,-132,-188,-1492,-92,4000,1964,4000,1989
1,-119,-122,-1367,-85,4000,1787,4000,727
1,-124,18,-871,-5,4000,1663,4000,-579
1,-42,74,-462,0,4000,1547,1996,-2084
1,-64,152,132,14,4000,1720,482,-3534
1,-77,147,272,118,4000,2188,702,-4000
1,-51,78,541,195,4000,2556,1723,-4000
1,-36,103,988,215,4000,2644,3838,-4000
1,-29,74,1224,150,4000,3212,4000,-4000
1,-23,86,714,115,4000,3621,1136,-4000
1,11,108,364,54,4000,2775,-941,-4000
1,-13,78,306,73,4000,1915,-1944,-4000
1,-40,78,93,18,4000,693,-4000,-2150
1,-20,81,80,-51,4000,-564,-4000,1785
1,-18,97,-133,-9,4000,469,-4000,4000
1,-25,121,55,-82,4000,1777,-4000,4000
1,-17,84,-188,-91,4000,1466,-4000,4000
1,-16,48,-139,-92,4000,35,-4000,4000
1,-50,10,-46,-121,4000,-3524,-4000,4000
1,-70,-39,-376,-69,4000,-4000,-3192,4000
1,-68,-64,-350,-57,4000,-2311,-2640,4000
1,-58,-96,-401,-71,4000,441,-3013,4000
1,-16,-63,-102,-79,4000,97,-3648,4000
1,1,18,-90,-111,4000,-550,-3338,4000
1,13,93,-121,-170,3102,-1735,-2804,4000
1,5,205,30,-167,1734,-2400,-2097,4000
1,25,247,43,-167,367,-3376,815,4000
1,43,288,280,-185,-1052,-3048,4000,4000
1,36,607,345,-182,-2194,-940,4000,4000
1,-106,477,259,-215,-4000,-745,4000,-4000
1,-149,106,-128,-178,-3689,-1487,4000,-4000
1,-96,-430,-188,-80,-2318,-802,4000,-4000
1,161,-598,929,52,4000,3461,4000,-4000
1,155,111,642,43,4000,3556,4000,-4000
1,71,376,269,-6,4000,3491,4000,-4000
1,52,512,89,-63,4000,3409,4000,-4000
1,0,477,-210,-40,4000,3995,4000,-4000
1,-12,467,-201,27,4000,4000,4000,-4000
1,-27,355,-247,61,4000,3212,4000,-4000
1,-142,-55,-129,22,2971,1466,4000,-2259
1,-140,-206,-79,12,-395,-252,4000,1270
1,-113,-310,-54,-33,-3852,-331,4000,4000
1,-128,-591,-66,-76,-4000,747,4000,4000
1,-126,-371,-104,-166,-4000,-154,4000,4000
1,-61,56,-143,-196,-734,-1495,4000,4000
1,16,269,-92,-119,4000,-3504,3086,4000
1,110,477,-121,-34,4000,-4000,989,4000
1,277,485,-64,-119,4000,2840,-802,4000
1,113,179,-125,-123,4000,2881,-513,4000
1,-49,13,-236,-136,4000,1964,-521,4000
1,-116,29,-28,-110,4000,2227,-309,4000
1,-104,130,312,-113,4000,2100,-373,4000
1,-60,158,288,-111,4000,221,-484,4000
1,-67,81,-53,-133,4000,-2141,-813,3467
1,-85,-22,-201,-141,4000,-4000,-651,3226
1,-111,-50,-336,-83,4000,-4000,-917,3096
1,-155,-142,-263,8,4000,-4000,-2288,1897
1,-85,-41,-173,46,4000,-4000,-3407,-70
1,-100,193,-128,10,4000,-4000,-3993,-1018
1,-120,273,-64,-33,4000,-4000,-4000,-1824
1,-85,314,8,-45,4000,-4000,-4000,-3329
1,-80,217,152,-80,3285,-4000,-4000,-4000
1,-23,41,334,-90,3660,-4000,-4000,-4000
1,-63,-173,689,-105,3293,-4000,-4000,-3984
1,-123,-383,598,-115,3397,-3767,-4000,-3712
1,-122,-545,149,-101,-746,-2965,-4000,-4000
1,-195,-609,20,-47,-4000,-252,-4000,-2230
1,-201,-361,439,10,-4000,214,-4000,-1013
1,-163,-75,714,-1,-4000,961,-4000,3
1,-67,179,1053,-18,-4000,1799,-4000,1533
1,47,317,1062,-32,-4000,2500,-4000,3470
1,74,279,372,-72,-4000,2515,-4000,4000
1,117,228,55,-129,-4000,1994,-4000,4000
1,82,152,-418,-79,-4000,1474,-4000,4000
1,64,77,-896,-37,-4000,1567,-4000,4000
1,52,4,-1072,23,-4000,2515,-4000,4000
1,21,-29,-896,48,-4000,3947,-4000,4000
1,21,-53,-257,41,-4000,4000,-4000,4000
1,12,-86,110,15,-4000,4000,-4000,4000
1,16,-91,1566,-11,-4000,3670,-4000,4000
1,9,-78,2792,-22,-4000,2162,-4000,4000
1,37,-26,1891,-2,-4000,1026,-4000,3845
1,65,-14,914,65,-4000,241,-4000,3487
1,88,4,-629,111,-4000,-576,-4000,3014
1,90,-31,-1872,181,-4000,-1546,-4000,2640
1,118,-21,-2373,161,-4000,-1961,-4000,2548
1,122,-57,-2851,91,-4000,309,-4000,1859
1,68,5,-2399,93,-4000,298,-3230,1606
1,-36,168,-1732,36,-4000,534,-2095,1434
1,-74,355,-922,48,-3791,681,-986,1272
1,-60,449,-269,71,-2638,283,-393,1374
1,-45,359,801,22,-1945,-875,-195,1325
1,-77,290,1759,74,-928,-2054,-53,1085
1,-143,282,1741,100,-147,-2141,-679,947
1,-36,294,742,36,725,-1075,-2637,800
1,72,160,304,30,1537,-327,-4000,395
1,131,-48,49,-15,1900,-419,-4000,-194
1,142,-211,-579,-84,2443,-1034,-3790,-492
1,86,-326,-894,-135,1836,-1835,-2308,-540
1,48,-278,-1166,-179,248,-2465,-946,-696
1,-23,-280,-996,-195,-136,-2575,32,-622
1,-13,-272,-649,-115,407,-2392,639,-122
1,-10,-220,207,-45,794,-2026,1288,-133
1,-1,-183,830,-37,2516,-1444,1906,120
1,14,-154,1379,46,4000,-932,1931,671
1,13,-112,1744,53,4000,-348,2843,846
1,21,-74,1835,20,4000,311,4000,63
1,25,-63,1999,74,4000,929,4000,-2906
1,43,-24,1940,115,4000,1449,4000,-4000
1,21,8,2461,111,4000,2243,4000,-4000
1,-6,-4,451,64,4000,2355,4000,-4000
1,9,34,-1258,30,4000,2450,4000,-4000
1,7,40,-2346,-25,4000,2503,4000,-4000
1,4,67,-2085,-33,4000,2515,4000,-3386
1,-10,108,-1036,-97,4000,2490,4000,-3864
1,-26,109,280,-160,4000,2385,4000,-4000
1,-27,82,8,-116,4000,2320,1013,-4000
1,-16,86,-174,-43,4000,2255,-4000,-4000
1,27,91,-514,-43,4000,2060,-4000,-4000
1,46,69,-816,-97,4000,1771,-4000,-4000
1,37,26,-898,-46,4000,1409,-4000,-2295
1,54,12,-1277,51,4000,1120,-2754,-1831
1,39,32,-1252,131,4000,817,2037,-1387
1,64,25,-1348,144,4000,571,4000,-948
1,51,59,-1227,142,4000,343,4000,-805
1,36,115,-1191,120,4000,61,4000,-732
1,21,158,-1020,53,4000,-238,4000,-976
1,-39,158,-906,-49,4000,-575,4000,-733
1,-62,152,-625,-153,4000,-826,2698,-460
1,-110,147,-204,-163,4000,-1070,-1063,-31
1,-79,172,40,-112,3851,-1135,-4000,-64
1,-47,103,368,-78,2035,-1005,-4000,15
1,-84,-46,408,-28,743,-812,-4000,247
1,-26,-155,596,35,-1585,-659,-4000,686
1,86,-351,836,-16,-3380,-489,-4000,783
1,64,-440,1090,-109,-4000,-442,-4000,259
1,81,-342,1104,-171,-4000,-403,-4000,-30
1,175,-173,936,-215,-4000,-375,-4000,69
1,72,-49,815,-300,-4000,-393,-4000,53
1,11,1,663,-466,-4000,-102,-4000,-472
1,-13,-15,596,-493,-4000,183,-4000,-533
1,-104,-43,419,-383,-4000,391,-4000,-401
1,-250,-55,557,-277,-4000,766,-4000,72
1,-467,-50,1387,-164,-4000,1299,-4000,877
1,-612,-23,2356,-84,-4000,1970,-4000,1185
1,-680,40,2266,-37,-4000,2644,-4000,1174
1,-570,40,1348,4,-4000,3399,-4000,1113
1,-374,-19,30,-11,-4000,4000,-4000,817
1,-169,-1,-1407,-8,-4000,4000,-4000,361
1,2,-59,-2277,-6,-4000,4000,-2927,329
1,60,-66,-2513,-20,-4000,4000,-941,279
1,88,-35,-2139,3,-4000,4000,939,367
1,94,37,-1461,3,-4000,4000,2423,927
1,123,113,-890,0,-4000,4000,3999,1403
1,85,201,-485,25,-4000,4000,4000,1346
1,60,298,-242,29,-4000,4000,4000,1632
1,53,328,41,81,-4000,4000,4000,2184
1,36,309,892,96,-4000,4000,4000,1834
1,74,263,2054,85,-4000,4000,4000,733
1,74,244,2615,85,-4000,4000,4000,-658
1,119,184,1192,96,-4000,4000,4000,-994
1,211,122,-217,179,-4000,4000,4000,330
1,202,-30,-580,174,-4000,3934,4000,1698
1,260,-171,-1414,107,-4000,2698,4000,2111
1,328,-244,-1765,75,-4000,1482,4000,2287
1,371,-202,-1731,88,-4000,260,4000,2117
1,277,-114,-1687,63,-3327,-875,4000,1829
1,94,-89,-1461,29,-1007,-1461,4000,1704
1,136,103,-1191,-14,1077,-1977,4000,1635
1,141,201,-971,-38,1865,-2802,4000,1696
1,307,201,-948,45,2117,-3787,4000,1590
1,591,213,-743,66,1981,-4000,4000,1531
1,460,97,-190,56,1584,-4000,2972,1496
1,321,-20,442,4,1537,-4000,1141,1460
1,122,-138,1147,-12,1051,-4000,-1142,1372
1,-284,-351,1175,26,-12,-4000,-3977,1091
1,-706,-530,549,30,-616,-4000,-4000,921
1,-960,-539,307,12,-338,-4000,-4000,686
1,-895,-586,185,-37,733,-4000,-4000,434
1,-909,-586,377,-41,2237,-4000,-4000,321
1,-936,-430,697,-35,3998,-4000,-4000,199
1,-628,-215,1348,-28,4000,-4000,-4000,33
1,-421,39,2326,-32,4000,-4000,-4000,-109
1,-106,160,1934,-48,4000,-4000,-4000,-253
1,425,247,1216,-25,4000,-4000,-4000,-479
1,759,400,1359,0,4000,-4000,-4000,-673
1,785,428,1133,-29,4000,-4000,-4000,-883
1,605,461,311,-64,4000,-4000,-4000,-1143
1,396,484,-697,-67,4000,-4000,-4000,-1339
1,145,465,-1491,-48,4000,-4000,-4000,-1404
1,-146,433,-2253,-29,3982,-3726,-4000,-1530
1,-719,309,-2338,8,4000,-3377,-4000,-1908
1,-925,182,-1679,95,4000,-3050,-4000,-2452
1,-816,60,-1231,85,4000,-2754,-4000,-2910
1,-586,-70,-632,69,4000,-2547,-4000,-3597
1,-58,-181,-46,69,4000,-2315,-4000,-4000
1,334,-393,-100,60,4000,-2138,-4000,-4000
1,668,-459,-527,159,4000,-2025,-4000,-4000
1,768,-273,-1101,199,4000,-1949,-4000,-4000
1,790,-181,-1553,134,4000,-1814,-2862,-4000
1,762,-163,-1191,73,4000,-1701,-487,-2905
1,591,-74,-737,4,4000,-1591,1931,-1524
1,436,49,-450,3,4000,-1430,3999,-390
1,172,51,30,-141,4000,-1265,4000,74
1,-104,95,699,-511,4000,-1123,4000,-99
1,-280,136,1101,-658,4000,-989,4000,-55
1,-376,97,966,-511,2906,-824,4000,-46
1,-427,110,1574,-210,2243,-680,4000,164
1,-461,15,2278,-108,1863,-529,4000,544
1,-409,-18,2160,-33,1466,-334,4000,939
1,-74,28,1639,18,1004,-100,4000,1180
1,489,45,1096,-72,558,144,4000,935
1,635,10,828,-57,-16,367,4000,766
1,541,-69,272,-37,-470,628,4000,414
1,554,-122,596,-78,-880,941,4000,308
1,454,-130,1025,-121,-1121,1180,4000,341
1,243,-102,-17,-63,-1096,1313,4000,393
1,-181,-59,-629,65,-925,1482,4000,716
1,-331,74,-857,142,-908,1604,4000,733
1,-388,99,-497,52,-993,1669,4000,935
1,-606,57,-213,8,-877,1722,4000,1199
1,-909,108,40,80,-869,1789,4000,1574
1,-1345,148,663,190,-903,1929,4000,1915
1,-1255,83,475,146,-934,1993,4000,1924
1,-917,115,207,105,-934,2047,2777,1915
1,-350,158,-389,65,-879,2019,1280,1830
1,212,147,-694,-125,-1072,1929,376,1859
1,408,42,-620,-47,-1446,1895,-672,1781
1,648,-114,-709,50,-1642,1799,-2486,1307
1,668,-166,-1264,64,-1758,1864,-4000,203
1,725,-183,-1427,46,-1945,1915,-4000,-1078
1,577,-81,-906,97,-1784,1864,-4000,-1860
1,485,-120,-709,92,-1843,1862,-3603,-2022
1,487,-120,179,46,-2240,1838,-3965,-1827
1,281,-3,2095,59,-2340,1862,-4000,-1503
1,443,16,2864,-59,-2010,1799,-4000,-1143
1,412,5,1249,-84,-1357,1721,-4000,-1131
1,603,-22,635,-123,-648,1641,-4000,-1065
1,465,-5,-269,-34,-81,1539,-4000,-886
1,-42,-89,-2253,233,-227,1515,-4000,-622
1,55,-171,-2737,288,-957,1417,-4000,-232
1,-25,-284,-2538,130,-3925,1313,4000,970
1,-77,-208,-2204,29,-4000,1279,4000,1561
1,-83,-126,-1659,44,-4000,1254,4000,1989
1,2,-13,-71,53,-4000,1191,4000,2348
1,-742,-23,1249,-47,-4000,1242,4000,2575
1,-1045,19,1674,-34,-4000,1319,4000,2753
1,-966,152,1422,-9,-4000,1380,4000,2934
1,-1019,254,1103,3,-2084,1398,4000,2941
1,-1039,254,431,-84,1091,1279,4000,3144
1,-1105,112,99,11,4000,1148,1760,3458
1,-865,11,-324,34,4000,884,-4000,3540
1,-109,103,-68,-48,4000,636,-4000,3534
1,619,78,480,-36,4000,347,-4000,3666
1,896,98,445,6,4000,-10,-4000,4000
1,1029,253,728,146,4000,-125,-506,3991
1,880,282,490,223,4000,-89,3494,3682
1,507,300,306,261,4000,4,4000,3393
1,351,233,170,150,4000,170,4000,3014
1,187,167,84,63,4000,453,4000,2795
1,-301,44,89,-53,1638,817,4000,2498
1,-433,-30,28,-39,2842,1148,1639,2351
1,-412,-23,854,167,4000,1328,-4000,2054
1,-461,-86,1114,-121,4000,1148,-4000,1818
1,-504,-150,699,-540,-2188,758,-4000,1592
1,-598,-142,451,-761,-4000,231,-1291,1346
1,-554,-161,-377,-719,-4000,-1109,4000,1012
1,-333,-114,-694,-532,4000,-1811,4000,751
1,-185,-72,-782,-319,4000,-2386,4000,294
1,22,-38,-563,-300,4000,-2872,4000,-427
1,139,-8,-217,-173,4000,-3262,4000,-832
1,328,-16,-74,-2,2645,-3530,4000,-809
1,328,-7,-221,-75,4000,-3649,4000,-472
1,176,-62,-202,-16,4000,-3514,4000,-190
1,259,-53,-182,30,4000,-3263,4000,-358
1,209,-23,-171,154,4000,-2819,-4000,-404
1,277,-16,-143,170,4000,-2287,-4000,-415
1,342,-60,-49,134,4000,-1727,-4000,-491
1,322,-50,-28,142,4000,-1199,-4000,-465
1,298,-32,-119,-34,4000,-613,-4000,-455
1,212,-68,110,41,4000,48,-4000,-327
1,179,-91,162,130,2842,571,-4000,-396
1,70,-117,189,108,-1617,1157,-4000,-519
1,-14,-117,246,105,-1459,1864,-4000,-553
1,-51,-153,178,118,-4000,2631,-4000,-619
1,-42,-168,250,124,-4000,3032,-4000,-606
1,7,-151,315,144,-4000,2904,-4000,-614
1,16,-102,317,63,-4000,2442,-4000,-573
1,17,-60,318,-30,-4000,1722,-4000,-583
1,180,-6,312,-24,-4000,701,-4000,-666
1,379,66,229,-107,-4000,-419,-4000,-753
1,570,106,197,-59,-4000,-1509,-4000,-832
1,762,237,93,31,-4000,-2635,-4000,-934
1,695,280,39,95,-4000,-3730,-4000,-1078
1,591,261,46,142,-4000,-4000,-4000,-1204
1,494,241,27,150,-4000,-4000,-4000,-1363
1,304,150,1,283,-4000,-4000,-4000,-1624
1,123,99,-6,225,-4000,-4000,-4000,-1892
1,-52,63,-38,57,-4000,-4000,-4000,-2068
1,-136,108,-33,36,-4000,-4000,-2097,-2175
1,-218,119,-42,-28,-4000,-4000,628,-2254
1,-343,109,-78,-84,-4000,-4000,2444,-2319
1,-360,168,-65,-69,-4000,-4000,4000,-2428
1,-262,159,-190,-90,-4000,-4000,4000,-2515
1,-200,168,-198,-76,-4000,-4000,4000,-2644
1,-236,212,-165,56,-4000,-4000,4000,-2683
1,-258,225,-218,233,-4000,-4000,4000,-2509
1,-262,233,-197,341,-4000,-4000,4000,-2429
1,-233,217,-133,325,-4000,-4000,4000,-2254
1,-217,135,-26,199,-4000,-4000,4000,-1809
1,-236,58,34,-22,-4000,-4000,4000,-1143
1,-180,16,-3,-261,-4000,-4000,4000,-419
1,-44,4,-100,-175,-4000,-1461,4000,276
1,66,40,-128,45,-4000,1774,4000,947
1,-7,57,-4,234,-4000,4000,4000,1533
1,-49,30,134,476,-4000,4000,4000,1989
1,-117,7,109,506,-4000,4000,4000,2313
1,-185,-34,41,299,-4000,4000,4000,2510
1,-163,-112,-40,141,-4000,4000,4000,2348
1,-226,-155,-48,-50,-4000,4000,4000,2111
1,-125,-129,3,-236,-4000,4000,4000,1989
1,-36,-139,-34,-226,-4000,4000,4000,1765
1,-2,-134,-11,-303,-4000,4000,4000,1598
1,27,-60,-51,-363,-4000,4000,4000,1533
1,8,1,-48,-64,-3131,4000,4000,1509
1,-23,13,104,246,64,4000,4000,1533
1,-39,22,152,276,2255,4000,3294,1632
1,-52,-21,46,207,2752,4000,1019,1698
1,-77,-17,-15,179,4000,4000,-1051,1728
1,14,-16,-15,209,4000,4000,-2630,1768
1,86,-79,-76,191,4000,4000,-4000,1715
1,102,-44,-84,162,4000,4000,-4000,1566
1,119,-15,-68,102,4000,4000,-4000,1372
1,146,-21,-102,50,4000,4000,-4000,1205
1,159,33,-78,-15,4000,4000,-4000,1026
1,90,83,-41,-120,4000,4000,-4000,841
1,117,67,-72,-153,4000,4000,-4000,586
1,212,28,-47,-157,4000,4000,-4000,302
1,154,-11,-37,-116,4000,4000,-4000,-22
1,73,-27,-18,-148,4000,4000,-4000,-297
1,-3,-37,-26,-76,4000,4000,-4000,-592
1,-83,-39,-63,-1,4000,4000,-4000,-946
1,-4,-31,-60,-23,4000,4000,-4000,-1143
1,310,-45,-62,-14,4000,4000,-1318,-1179
1,540,-56,-65,-92,4000,3292,4000,-1143
1,296,-58,-54,-131,4000,1982,4000,-1192
1,77,-40,-29,-179,4000,707,4000,-1254
1,-13,-42,-45,-289,4000,-546,4000,-1274
1,-163,-14,-44,-350,4000,-1522,4000,-1204
1,-298,-19,-15,-366,4000,-2239,4000,-1204
1,-437,-24,14,-221,4000,-3169,4000,-1120
1,-417,57,46,-100,4000,-4000,4000,-983
1,-297,69,45,-131,4000,-4000,4000,-953
1,-122,25,31,-71,4000,-4000,4000,-858
1,-23,6,47,-15,4000,-4000,4000,-793
1,-11,-16,46,45,4000,-4000,4000,-716
1,138,25,20,89,4000,-4000,4000,-645
1,134,49,40,133,4000,-4000,4000,-541
1,104,48,31,193,4000,-4000,4000,-311
1,62,69,-25,69,4000,-4000,4000,-69
1,-64,65,-55,-63,-1198,-4000,4000,149
1,-50,73,-67,-179,-4000,-4000,4000,285
1,-174,14,-2,-255,-4000,-4000,4000,400
1,-392,-56,6,-275,-4000,-4000,4000,491
1,-649,-118,-61,-387,-4000,-4000,4000,581
1,-665,-146,-64,-435,-4000,-4000,4000,629
1,-652,-148,-60,-307,-4000,-4000,4000,609
1,-628,-145,-50,-215,-4000,-4000,-90,535
1,-360,-56,-45,-284,-4000,-4000,-4000,434
1,-361,-63,-71,-324,-4000,-4000,-4000,290
1,-286,-97,-107,-348,-4000,-3323,-4000,165
1,-79,-73,-149,-316,-4000,-2725,-4000,51
1,9,-85,-131,-218,-4000,-2543,-4000,-138
1,161,-97,-72,-113,-4000,-2420,-4000,-311
1,428,-88,-51,28,-4000,-2895,-4000,-472
1,674,-76,-36,136,-4000,-3968,-4000,-620
1,640,-91,2,195,-4000,-3848,-4000,-645
1,668,-73,35,314,-4000,-3453,-4000,-686
1,603,-81,89,431,-4000,-3377,-4000,-664
1,399,-47,149,431,-4000,-2895,-4000,-593
1,540,-10,116,209,-4000,-2400,-4000,-559
1,1181,-33,59,37,-4000,-1633,-4000,-458
1,1319,-6,40,60,-4000,-1355,-4000,-409
1,553,21,14,-9,-4000,-1160,-4000,-270
1,204,23,-77,12,-4000,-891,-4000,-260
1,120,-7,-118,-72,-4000,-940,-4000,-146
1,-31,-16,-87,-135,-4000,-962,-4000,140
1,-521,14,-52,-96,-4000,-1115,-4000,269
1,-901,32,-45,-137,-3267,-1196,-4000,352
1,-1170,13,13,-21,-1525,-982,-4000,185
1,-1230,-30,-7,187,1603,-770,-4000,-251
1,-692,46,-46,264,4000,-767,-4000,-990
1,-584,109,-5,197,4000,-221,-4000,-1257
1,-807,-23,-13,121,4000,123,-4000,-875
1,-885,-35,4,36,4000,135,-2729,-492
1,-474,36,17,-47,4000,540,124,-139
1,-197,85,50,-108,-4000,801,2375,75
1,-86,147,82,-92,-4000,1506,4000,304
1,86,114,18,-51,-4000,2319,4000,586
1,220,94,-5,-66,-4000,2840,4000,760
1,358,72,31,-81,2293,3617,4000,794
1,485,32,30,35,4000,4000,4000,782
1,751,-23,19,182,4000,4000,4000,731
1,973,-102,42,156,4000,4000,4000,621
1,967,-143,-9,60,4000,4000,3559,491
1,798,-126,-20,-67,4000,1604,-1547,361
1,756,-27,12,-116,4000,-1457,-4000,195
1,328,36,40,81,4000,-2054,-4000,79
1,52,89,79,272,4000,-731,-4000,73
1,-74,160,24,260,4000,331,-4000,126
1,-278,121,23,229,4000,-255,-4000,164
1,-518,45,9,130,4000,-224,-4000,58
1,-749,9,-11,5,4000,273,-4000,-124
1,-651,18,24,-120,4000,-612,-4000,-218
1,-690,19,8,-318,4000,-2775,-4000,-327
1,-498,-12,-9,-397,4000,-4000,-4000,-382
1,-193,11,-50,-397,4000,-4000,-3977,-425
1,-130,12,-33,-361,4000,-4000,-2467,-506
1,-159,11,-13,-387,-1658,-4000,-1842,-565
1,-104,9,2,-279,-4000,-4000,-1136,-696
1,3,-14,-10,-164,-4000,-4000,-832,-820
1,-25,16,-71,-74,-4000,-4000,-562,-990
1,7,-18,-51,69,-4000,-4000,-451,-1135
1,94,-7,-43,46,-4000,-4000,-917,-1263
1,21,4,-21,102,-4000,-4000,-1641,-1339
1,11,-23,-23,131,-4000,-4000,-2146,-1374
1,27,-23,-53,104,-4000,-3649,-2028,-1339
1,-31,-53,-32,33,-4000,-1959,-1570,-1257
1,-125,-23,-22,46,-4000,311,-1063,-1168
1,-152,-22,-19,81,3554,1994,-472,-1018
1,-19,-7,-27,60,4000,3807,243,-915
1,11,-8,-1,33,4000,4000,1605,-753
1,55,-24,11,-39,4000,4000,2823,-687
1,120,17,34,12,4000,4000,2843,-778
1,139,-19,55,85,4000,4000,2961,-722
1,171,-17,35,131,4000,4000,3528,-588
1,188,-11,14,108,4000,4000,3810,-370
1,190,-7,-57,12,4000,4000,4000,-147
1,184,38,-46,5,4000,4000,4000,-89
1,195,66,-6,264,1466,4000,4000,65
1,154,55,45,598,-119,4000,4000,275
1,135,48,88,741,-1489,4000,4000,112
1,72,56,12,425,-2509,4000,4000,117
1,74,41,-47,194,-3864,4000,4000,247
1,53,37,-28,-67,-4000,4000,4000,462
1,27,62,-15,-576,-4000,4000,4000,540
1,166,0,131,-610,-4000,4000,3810,1056
1,250,-24,93,-255,-4000,4000,3286,825
1,358,-34,41,-24,-3065,286,2358,581
1,574,-26,35,-59,-2468,-3323,1982,396
1,701,-6,-45,-55,-2248,-2626,2427,74
1,838,-4,-90,-90,-2029,433,2823,21
1,383,-56,-78,-164,-1767,1864,2883,361
1,-30,-80,-78,-146,-1137,1964,2908,360
1,-292,-75,-118,-113,-197,2188,3475,322
1,-785,-39,-103,126,823,2360,2972,377
1,-936,-26,-70,156,1900,2239,2423,54
1,-954,-38,-12,81,2906,1539,3151,-209
1,-885,-25,62,62,3838,1026,4000,-504
1,-846,9,93,-41,4000,1144,4000,-928
1,-766,18,3,-92,4000,472,4000,-1042
1,-713,66,54,-123,4000,-351,4000,-885
1,-700,130,132,-90,3851,-1221,4000,-1013
1,-474,119,27,-4,3141,-2095,1705,-766
1,-161,95,-24,92,2507,-2788,-255,-270
1,15,65,-11,167,1901,-3504,-786,27
1,81,48,24,174,1026,-4000,-443,279
1,296,12,27,146,46,-4000,-524,377
1,487,3,29,128,-681,-4000,-865,423
1,652,-11,-25,129,-1263,-4000,-811,352
1,1159,-72,-57,108,-1963,-4000,146,434
1,1474,-70,-38,133,-3054,-4000,1446,538
1,1222,-77,-55,162,-4000,-4000,3038,671
1,674,-88,-43,136,-4000,-4000,4000,760
1,155,-51,-40,156,-4000,-4000,4000,874
1,-145,-44,-33,156,-4000,-4000,4000,976
1,-553,-14,-18,156,-4000,-4000,4000,1012
1,-873,-13,158,171,-4000,-4000,4000,1185
1,-1011,-44,727,169,-4000,-3854,4000,1307
1,-966,-24,1283,142,-4000,-3340,4000,1411
1,-901,-4,1375,140,-4000,-2900,4000,1468
1,-974,52,801,134,-4000,-2703,4000,1531
1,-925,87,-132,118,-4000,-2246,4000,1663
1,-649,91,-682,121,-4000,-1788,4000,1859
1,-407,65,-1010,111,-4000,-1521,4000,2110
1,-215,101,-1051,105,-4000,-1184,4000,2249
1,74,144,-922,88,-4000,-966,4000,2284
1,214,124,-776,75,-4000,-907,4000,1988
1,361,84,-648,60,-4000,-938,4000,1533
1,389,11,-662,45,-4000,-900,4000,1174
1,399,-31,-672,15,-4000,-839,4000,377
1,408,-40,-668,69,-4000,-680,4000,-297
1,346,-64,-463,92,-4000,-421,4000,-253
1,334,-71,-139,88,-4000,-108,4000,-240
1,257,-66,18,142,-4000,-106,4000,-3
1,212,-55,-155,132,-4000,-732,4000,695
1,176,5,-102,81,-4000,-1290,3754,1533
1,151,-29,16,-19,-4000,-1916,3086,2184
1,147,-60,64,-126,-4000,-2467,2700,2249
1,89,-28,280,-239,-4000,-1755,2429,1924
1,35,-9,295,-267,-4000,-1200,1983,1476
1,90,38,561,-239,-4000,-2037,872,785
1,137,39,663,-217,-2967,-2311,-786,-122
1,149,24,642,-123,-1849,-1642,-2125,-708
1,144,-14,958,8,-1462,-1526,-3193,-805
1,-25,-36,1062,115,-1945,-1591,-3455,-1143
1,-311,-20,947,33,-2484,-1489,-2549,-1192
1,-612,-44,506,-42,-3107,-1420,-993,-468
1,-685,-42,218,-98,-3855,-1355,341,-101
1,-681,-20,467,-180,-4000,-1444,832,-404
1,-521,-36,541,-175,-3978,-1373,573,-919
1,-99,-73,-133,-210,-4000,-1184,-159,-1048
1,334,-95,-285,-232,-4000,-877,-1006,-1270
1,863,-100,758,-149,-4000,-680,-1781,-1503
1,1346,-72,490,-114,-4000,-497,-2568,-1660
1,1507,55,-1589,-44,-4000,10,-3040,-2893
1,827,29,-1451,-76,-4000,195,-2402,-3462
1,431,12,-1144,-121,-4000,433,-1830,-3846
1,21,29,-697,-144,-4000,596,-2133,-3978
1,-461,12,-71,-116,-4000,664,-2790,-4000
1,-139,41,150,-13,-3899,669,-3184,-4000
1,147,19,150,100,-1729,571,-3637,-4000
1,-455,-65,69,194,310,441,-4000,-4000
1,-1170,-103,-131,191,1006,355,-4000,-4000
1,-1345,-98,158,64,497,283,-4000,-4000
1,-1194,199,2133,-85,487,433,-3342,-4000
1,-571,282,2129,27,448,345,-2754,-4000
1,74,316,2027,42,247,141,-2302,-4000
1,301,298,1350,27,871,-43,-1842,-4000
1,363,244,-77,8,1669,-163,-2055,-4000
1,285,205,-1020,-54,1863,-320,-2756,-4000
1,8,-12,-1824,-113,667,-419,-3914,-4000
1,-116,-117,-1622,-121,-1849,-499,-4000,-3724
1,-14,-66,-1520,-218,-4000,-548,-4000,-3333
1,-122,-80,-1687,-196,-4000,-558,-4000,-2901
1,-298,-163,-1796,-34,-4000,-584,-4000,-2466
1,-323,-357,-1451,24,-4000,-541,-4000,-1917
1,-180,-454,-711,35,667,-344,-4000,-1124
1,-162,-314,-140,14,4000,56,-4000,-30
1,14,-233,1672,104,4000,494,-4000,1125
1,994,-257,1770,178,4000,1604,-4000,3198
1,1281,-59,-2670,-260,4000,2904,-3965,4000
1,-365,199,-2109,-455,4000,2308,-3407,4000
1,-1091,262,-932,-356,4000,2165,-3377,4000
1,-1296,196,511,132,4000,1148,-3432,4000
1,-820,159,1387,261,4000,754,-2954,4000
1,-1170,87,2927,304,4000,441,-2075,4000
1,-1150,8,742,69,4000,-460,2183,4000
1,-685,0,-503,73,4000,-745,1866,4000
1,113,-64,-56,141,4000,-1184,1516,4000
1,668,-114,312,199,4000,-1588,1158,4000
1,781,-103,-951,43,4000,-1766,1019,4000
1,920,-32,-1535,-79,4000,-1615,1139,3784
1,900,-30,-1554,-195,4000,-1487,1314,3261
1,994,11,-1992,-455,4000,-1261,1345,2753
1,1116,186,-2643,-490,4000,-1135,1310,2182
1,929,127,-2383,-304,4000,-1633,2896,876
1,886,66,-1268,-66,4000,-2113,4000,91
1,863,82,-337,-38,4000,-2571,4000,-622
1,974,74,-365,31,4000,-2965,4000,-1465
1,1222,9,-693,118,479,-3116,4000,-2248
1,1087,-213,1314,282,-4000,-667,4000,-3864
1,-46,-144,801,218,-4000,428,4000,-3984
1,-1324,-17,525,150,-4000,1840,4000,-4000
1,-1491,83,-102,0,-4000,4000,4000,-3345
1,-1491,-17,-702,75,-4000,4000,4000,-3200
1,-844,-133,-734,77,-4000,4000,4000,-3047
1,-494,-117,-168,32,-4000,4000,4000,-2961
1,-307,43,677,53,-4000,4000,4000,-2906
1,69,98,373,66,-4000,4000,4000,-2799
1,220,7,-79,33,-4000,4000,4000,-2635
1,382,21,392,6,-3855,3265,4000,-2391
1,790,132,841,-1,-2289,2319,4000,-2063
1,957,85,828,5,-846,1482,4000,-1624
1,1098,-31,657,50,310,730,4000,-1143
1,1050,-93,655,-8,1930,107,4000,-777
1,1092,-143,1322,-51,3851,-476,4000,-431
1,1030,-153,1965,1,4000,-1170,2256,-128
1,559,-173,1101,-86,4000,-2014,-1853,214
1,119,-228,728,-98,4000,-2986,-4000,666
1,-187,-158,1940,-31,4000,-4000,-4000,1138
1,-117,-17,2198,-45,4000,-4000,-4000,1654
1,-61,-59,801,20,4000,-4000,-4000,2054
1,2,-104,-537,81,4000,-4000,-4000,2182
1,211,-86,-1612,27,4000,-4000,-4000,2051
1,454,-69,-2204,-8,4000,-4000,-4000,1859
1,759,1,-2245,3,4000,-4000,-4000,1663
1,1116,24,-2342,-96,4000,-4000,-4000,1403
1,1319,11,-1948,-104,4000,-4000,-4000,1127
1,855,-18,-2769,-70,4000,-4000,-4000,629
1,513,18,-2769,91,4000,-4000,-4000,-839
1,425,33,-2807,77,3660,-4000,-4000,-1809
1,-148,27,-2045,91,-229,-4000,-4000,-2811
1,-846,-14,-1673,118,-3653,-4000,-4000,-3718
1,-1150,-28,-999,215,-4000,-4000,-4000,-4000
1,-1407,98,-248,280,-4000,-4000,-4000,-4000
1,-1262,338,1442,199,-4000,-663,-4000,-4000
1,-1045,306,1691,188,-4000,3538,-4000,-4000
1,-816,316,1560,94,-4000,4000,-4000,-3779
1,-311,243,1436,12,-3604,4000,-4000,-2350
1,146,140,1127,-98,-1854,4000,-4000,-1325
1,590,144,980,-202,448,4000,-4000,47
1,721,98,980,-253,2255,4000,-3924,1663
1,689,41,1119,-221,4000,4000,-2903,2704
1,519,9,1127,-147,4000,4000,-3000,3391
1,371,-11,1175,-137,4000,4000,-4000,3792
1,267,13,1703,-137,4000,4000,-4000,4000
1,50,13,2210,-184,4000,4000,-4000,3831
1,-76,5,2030,-121,4000,4000,-4000,2816
1,-227,-3,1489,-2,4000,4000,-4000,1728
1,-339,12,830,31,4000,3361,-4000,621
1,-352,50,299,32,3538,1539,-2572,-163
1,-181,42,-287,35,2581,-126,-1735,-899
1,-30,42,-1071,-2,1091,-1902,-1962,-1820
1,166,0,-1101,-38,-488,-3529,-1643,-2201
1,366,-45,-756,-106,-1729,-4000,-786,-2035
1,287,-92,-485,-159,-2996,-4000,319,-1957
1,319,-113,-255,-153,-2856,-4000,1223,-2392
1,275,-94,97,-100,-727,-4000,2948,-2742
1,230,-160,556,-2,3352,-4000,4000,-3345
1,180,-153,610,-41,4000,-3588,4000,-4000
1,70,-83,400,-18,4000,-1523,4000,-4000
1,59,-23,642,38,4000,795,4000,-4000
1,89,43,651,31,4000,3265,4000,-4000
1,90,7,-276,-40,4000,4000,4000,-4000
1,59,-38,-1126,-114,4000,4000,4000,-4000
1,101,-72,-1931,-136,4000,4000,4000,-4000
1,51,-59,-2598,-164,4000,4000,4000,-4000
1,80,-57,-2824,-115,4000,4000,4000,-4000
1,42,-47,-2672,-163,4000,4000,1569,-4000
1,16,-38,-2253,-175,4000,4000,-2109,-4000
1,13,-100,-1427,-119,4000,4000,-4000,-4000
1,-19,-23,-420,-96,4000,4000,-4000,-4000
1,-10,130,-14,-60,4000,4000,-4000,-4000
1,-70,148,398,-90,4000,4000,-4000,-4000
1,-70,35,628,-82,4000,4000,-4000,-4000
1,-95,-73,724,3,4000,3265,-4000,-4000
1,-116,-220,787,63,4000,983,-4000,-4000
1,-117,-440,557,141,4000,-223,-4000,-4000
1,-25,-399,692,207,3410,-180,-3533,-3024
1,30,-207,663,194,-222,-206,-3390,1977
1,-121,-171,608,207,-3213,-564,-1899,4000
1,-188,-141,528,240,-4000,-651,-48,4000
1,-193,-230,370,195,-4000,-499,1280,4000
1,-155,-199,410,161,-4000,-350,1866,4000
1,-46,-220,349,122,-4000,-279,2570,4000
1,-19,-369,510,74,-4000,-423,4000,4000
1,9,-379,720,72,-4000,-835,4000,4000
1,16,-452,663,-34,-4000,-1313,4000,4000
1,-67,-335,404,-109,-4000,-2075,4000,4000
1,-163,-106,248,-86,-4000,-2965,4000,4000
1,-158,341,40,23,-4000,-3190,4000,4000
1,73,538,-114,272,-4000,-1095,4000,4000
1,-37,227,-94,299,-4000,-1095,4000,4000
1,-82,-50,-132,323,-4000,-917,4000,4000
1,-77,-225,-192,316,-4000,-838,4000,4000
1,-94,-275,-99,123,-4000,-798,4000,4000
1,-31,-113,-50,-36,-4000,-936,4000,4000
1,-41,-26,-26,-86,-4000,-1116,4000,4000
1,-33,-41,48,-94,-4000,-1376,4000,4000
1,-9,-78,68,-177,-3474,-1875,4000,4000
1,-96,-111,71,-250,1537,-1987,4000,4000
1,3,74,3,-397,4000,-1526,4000,4000
1,64,322,6,-552,4000,-1160,4000,4000
1,123,412,98,-359,4000,-965,4000,4000
1,239,460,184,44,4000,-686,4000,4000
1,188,549,190,329,4000,-891,4000,4000
1,130,440,142,219,4000,-1381,4000,4000
1,116,288,22,68,557,-1727,4000,4000
1,86,223,-27,-110,-2535,-1737,4000,4000
1,-13,60,-19,-237,-2242,-1095,4000,4000
1,-58,-104,-41,-100,-50,-202,4000,4000
1,-69,-264,-30,-97,1905,624,4000,2290
1,-102,-351,-16,-198,2941,1144,4000,-730
1,-94,-375,-54,-303,3008,823,4000,-3113
1,-99,-372,-82,-196,953,571,4000,-4000
1,-103,-408,-84,-36,-3978,665,4000,-4000
1,-164,-401,-97,33,-4000,831,4000,-4000
1,-180,-314,-54,105,-4000,1734,4000,-4000
1,-164,-295,-71,-17,-4000,3265,4000,-4000
1,-164,-244,-38,-93,-4000,4000,4000,-4000
1,-26,-81,-13,-32,-4000,4000,4000,-4000
1,52,125,-18,-5,-2570,4000,4000,-4000
1,40,205,-21,53,-2629,4000,4000,-4000
1,-3,273,-72,40,-4000,4000,4000,-4000
1,-37,181,-34,-49,-4000,4000,4000,-4000
1,-13,113,-82,-132,-4000,4000,4000,-4000
1,-60,-1,-129,-229,-4000,4000,3620,-4000
1,-39,-264,-86,-373,-4000,3292,2873,-4000
1,-21,-379,-57,-446,-4000,2904,2297,-4000
1,-77,-591,-9,-359,-2224,2373,1569,-4000
1,-50,-560,3,-198,2569,1994,1019,-4000
1,-55,-202,3,-114,4000,1759,467,-4000
1,-42,38,-27,-61,4000,1180,-239,-4000
1,24,180,-7,36,4000,481,-774,-4000
1,103,534,8,34,4000,-306,-1397,-4000
1,147,579,-38,83,4000,-619,-4000,-4000
1,130,258,-73,67,4000,-394,-4000,-4000
1,54,48,-46,47,4000,-647,-4000,-4000
1,7,-59,-54,55,4000,-1396,-4000,-4000
1,11,-122,-74,85,4000,-2094,-4000,-4000
1,-15,-150,-45,69,4000,-2400,-4000,-4000
1,-41,-122,-53,67,4000,-2635,-4000,-4000
1,-69,-116,-62,50,4000,-2937,-4000,-4000
1,-68,-122,-66,-39,4000,-3596,-4000,-4000
1,-59,-114,-44,-69,2443,-4000,-4000,-4000
1,-53,-143,11,-24,487,-4000,-4000,-4000
1,-68,-173,-15,16,493,-4000,-4000,-2084
1,-101,-240,-13,64,1995,-4000,-4000,-559
1,-53,-354,-16,54,2710,-4000,-4000,813
1,2,-334,-74,38,3554,-4000,-4000,2153
1,5,-314,-57,38,4000,-4000,-4000,2639
1,-2,-306,-53,44,4000,-4000,-4000,1793
1,-37,-267,-51,37,4000,-4000,-4000,-886
1,-77,-183,-39,-9,4000,-4000,-4000,-1951
1,-70,90,-17,-17,4000,-4000,-4000,1313
1,-13,428,-22,-54,4000,-4000,-4000,3719
1,-36,549,-26,-66,4000,-4000,-4000,3161
1,-8,461,-46,6,4000,-4000,-4000,3127
1,73,237,2,73,4000,-4000,-4000,3279
1,45,82,28,80,2872,-4000,-4000,1663
1,19,26,-7,33,2443,-4000,-3526,-319
1,-3,13,9,-6,2360,-1519,-3266,-93
1,1,22,-10,-29,2293,1148,-2804,935
1,-21,-32,10,-78,2356,1993,-2508,1270
1,-11,79,17,-172,2699,1033,-2043,1899
1,31,110,11,-238,4000,1006,-1388,1716
1,23,33,42,-219,4000,1378,-929,2680
1,21,-149,71,-198,4000,1398,-77,3404
1,-9,-253,59,-170,4000,1138,-318,3079
1,-10,-242,23,-114,4000,945,-672,2575
1,-33,-374,3,-8,4000,1125,-705,998
1,-21,-253,-50,142,4000,1358,-1071,-248
1,-11,-269,-72,264,4000,1993,-420,-664
1,-69,-448,-83,257,4000,2758,767,410
1,8,-275,-22,163,4000,3556,1359,1150
1,102,-54,93,182,4000,4000,1310,1085
1,44,-231,147,183,4000,4000,1516,1264
1,-1,-244,111,77,4000,4000,666,990
1,19,-93,69,-2,4000,4000,-255,701
1,-12,-83,45,-25,4000,4000,189,1026
1,-54,142,28,-37,4000,4000,792,1716
1,-171,384,7,-62,4000,4000,1801,1988
1,112,457,35,-34,4000,441,789,2350
1,37,193,63,-49,4000,621,3465,2249
1,31,111,62,-57,4000,928,4000,2119
1,42,74,142,-53,4000,1204,2647,2042
1,23,-14,451,-63,603,1378,-37,1964
1,-33,-11,511,-90,-514,1157,-1337,2111
1,-29,-58,84,-90,-478,789,229,2510
1,-8,-28,-119,-103,998,331,2256,2636
1,4,-97,-241,-72,2906,-204,1467,2078
1,-70,-269,-463,-26,2484,-594,-475,1055
1,-119,-320,-554,-55,1584,-1523,-2276,-84
1,-100,-325,-650,-49,1863,-3059,-1802,-1143
1,-78,-310,-515,-13,1539,-4000,-672,-2140
1,-47,-257,-245,-45,142,-4000,-1231,-2995
1,-30,-160,-60,-78,-924,-4000,-2133,-3191
1,-4,-127,66,-63,-1235,-4000,-2223,-2442
1,-1,-72,107,-57,-1916,-3169,-2028,-1143
1,32,-6,102,-25,-2402,-1949,-1238,-229
1,20,13,116,0,-3278,-1005,-128,507
1,33,55,84,-6,-4000,-379,820,1496
1,19,1,50,-13,-3978,-154,1734,1988
1,-49,-68,-24,-22,-4000,-93,1845,2119
1,-34,-74,59,10,-4000,271,1925,2097
1,-12,-54,343,17,-4000,933,1841,2160
1,5,6,398,-6,-4000,1994,2256,2237
1,-5,39,527,-19,-4000,3472,2972,2290
1,1,45,1212,-1,-4000,4000,3214,2616
1,3,36,2087,-2,-4000,4000,4000,2888
1,-10,53,1745,7,-4000,4000,4000,3002
1,2,45,777,53,-4000,4000,4000,3014
1,0,32,708,9,-4000,4000,4000,3031
1,31,14,-28,-47,-4000,4000,4000,3096
1,21,9,-1293,-38,-4000,4000,4000,3470
1,1,52,-1907,-21,-4000,4000,4000,3845
1,12,62,-2452,-49,-4000,4000,4000,3352
1,7,66,-2706,-16,-4000,4000,4000,2626
1,-1,63,-2510,38,-4000,4000,4000,2078
1,-1,44,-1729,44,-4000,4000,4000,1663
1,-14,17,-1165,44,-4000,4000,41,1403
1,-36,49,-1022,59,-4000,4000,-2642,890
1,-42,24,-287,77,-4000,4000,-2368,853
1,-66,-51,18,73,-4000,4000,-255,1403
1,-93,-68,-97,61,-4000,4000,2623,1632
1,-79,-88,253,63,-4000,4000,4000,1832
1,-66,-53,570,56,-4000,4000,4000,1541
1,-55,-52,841,7,-4000,4000,4000,1183
1,-25,-69,1108,-16,-4000,3837,4000,938
1,-20,-102,936,-3,-4000,795,4000,414
1,-33,-151,657,27,-3718,-2026,4000,182
1,-31,-105,504,23,-1524,-4000,4000,-257
1,32,-105,114,-2,758,-4000,4000,-565
1,53,-66,-484,-48,1930,-4000,4000,-915
1,1,21,-572,-73,1857,-4000,3738,-1189
1,12,69,-357,-55,794,-4000,-1653,-1267
1,41,154,-20,-67,-356,-4000,-4000,-1534
1,51,195,312,-94,-409,-4000,-4000,-1776
1,54,182,749,-101,-37,-4000,-4000,-1957
1,38,152,1485,-48,720,-4000,-4000,-1911
1,104,59,1806,29,1077,-4000,-4000,-1823
1,166,16,1747,91,-217,-4000,-4000,-1774
1,52,-72,1827,85,-2169,-4000,-4000,-1708
1,-17,-219,1257,-33,-3591,-4000,-4000,-1650
1,16,-330,345,-29,-3817,-4000,-4000,-1664
1,18,-366,61,23,-2338,-4000,-4000,-1691
1,18,-218,-161,-1,-1593,-4000,-4000,-1648
1,65,-104,-170,-4,-2423,-4000,-4000,-1567
1,269,-40,54,-22,-4000,-4000,-4000,-1469
1,241,68,504,-29,-4000,-4000,-4000,-1274
1,14,2,828,-14,-4000,-4000,-3857,-1103
1,-4,-32,-25,-14,-4000,-4000,-1523,-875
1,-111,37,-582,-82,-4000,-4000,-979,-545
1,-224,159,-336,-76,-2822,-4000,-3118,-435
1,139,189,-803,-34,-2341,-4000,-4000,-323
1,1038,129,-1261,-130,-2969,-4000,-4000,-264
1,979,168,-922,-229,-3978,-4000,-4000,-234
1,112,59,-776,-260,-4000,-4000,-4000,-240
1,1,-64,-450,-239,-4000,-4000,-4000,-226
1,-257,-101,190,-121,-4000,-4000,-4000,-113
1,-453,-60,785,-42,-4000,-4000,-4000,-44
1,-719,-22,1489,-28,-4000,-4000,-4000,46
1,-1105,12,1228,3,-4000,-4000,-4000,30
1,-1216,33,258,42,-826,-4000,-4000,59
1,-1365,-29,-674,77,2947,-3895,-4000,107
1,-1296,241,-1872,56,4000,-2635,-4000,20
1,-1038,513,-2578,-7,4000,-1461,-4000,88
1,-765,473,-2155,-68,4000,-481,-4000,360
1,-535,254,-1933,-104,4000,441,-4000,585
1,-98,-78,-2241,-104,164,1181,-4000,621
1,-14,-280,-1720,-63,-3573,1799,-4000,296
1,-86,-468,-1687,-56,-4000,2356,-4000,-151
1,168,-478,-1687,-16,-4000,2775,-4000,-658
1,277,-526,-1286,50,-2708,3202,-4000,-1660
1,501,-574,-413,158,-277,3552,-4000,-2409
1,565,-373,923,187,2581,3836,-4000,-2428
1,505,-347,1554,141,4000,4000,-4000,-2082
1,605,-167,2852,144,4000,4000,-4000,-1746
1,487,205,1485,-6,4000,4000,-3130,-366
1,385,152,170,43,4000,4000,-1588,-230
1,820,127,-782,130,4000,4000,-129,-297
1,1181,-20,-1518,90,4000,4000,1214,-450
1,855,-85,-1462,-47,4000,4000,1604,-753
1,725,-157,-642,-122,4000,4000,1864,-1251
1,691,-229,533,-214,4000,3983,2517,-1774
1,202,-273,1741,-271,4000,3849,2843,-2376
1,994,207,2539,64,4000,3007,-269,-3671
1,920,269,-269,50,4000,2904,-859,-2910
1,774,270,-2424,-69,4000,2958,1098,-1986
1,-1158,103,-2542,29,4000,4000,4000,-287
1,-383,164,-515,199,-550,4000,4000,2237
1,1507,92,828,31,-2242,3658,-4000,2092
1,342,-44,193,-36,-53,3621,-4000,2498
1,-515,-84,211,-99,2581,3472,-4000,2900
1,-1430,-83,736,-155,4000,3333,-4000,3031
1,-1351,94,2158,-220,4000,3101,-4000,3144
1,-1150,12,1770,-130,4000,2971,-4000,2809
1,-807,53,1692,-192,4000,2821,-4000,2510
1,-609,55,1068,-348,4000,2748,-4000,2111
1,-482,120,996,-314,4000,2685,-4000,1753
1,351,64,69,-221,4000,2631,-4000,1445
1,1281,-136,-1106,-226,4000,2515,-4000,1270
1,1065,-53,-2370,248,4000,1598,-2125,1174
1,307,-168,-1879,337,4000,1157,2633,1403
1,-477,-137,-690,345,4000,597,4000,1728
1,-779,-69,1436,280,4000,-68,4000,2041
1,-951,-176,2392,221,4000,-792,4000,1918
1,-1143,-266,2604,64,1669,-1396,4000,1859
1,-1219,-207,2875,-167,-4000,-1961,4000,1598
1,-908,-153,2136,-173,-4000,-2481,4000,1150
1,-619,-107,895,-53,4000,-2819,4000,723
1,-387,16,-162,1,4000,-2998,4000,182
1,42,132,-358,-46,4000,-2965,4000,-244
1,333,250,-470,-22,4000,-2737,1825,-577
1,408,247,-403,0,-2550,-2457,1503,-384
1,167,69,-225,-13,26,-2185,1866,286
1,277,-42,-342,52,4000,-1977,1467,760
1,528,-118,-514,140,4000,-1851,815,916
1,410,-91,-1166,73,4000,-1766,-550,992
1,208,-35,-2112,35,3554,-1688,-1735,853
1,5,-68,-2479,77,-4000,-1640,-2536,751
1,35,-70,-1714,50,-4000,-1656,-2756,723
1,-41,-114,-1297,-14,-4000,-1654,-2995,656
1,234,-51,-711,61,-4000,-1550,-2795,785
1,798,-84,-503,169,-4000,-1262,-2642,721
1,850,-183,-829,-39,-4000,-928,-3326,592
1,668,-167,-544,-124,-4000,-615,-3851,412
1,593,-197,-776,-147,-4000,-293,-4000,190
1,501,-173,-226,-178,-4000,-132,-4000,66
1,371,-208,215,-32,-4000,-151,-4000,-52
1,165,-292,203,-9,-4000,-371,-4000,-19
1,-16,-344,508,54,-4000,-809,-4000,2
1,-270,-340,882,-2,-4000,-1396,-4000,191
1,-482,-287,1473,-153,-4000,-2172,-4000,499
1,-386,-247,1473,-141,-4000,-3051,-4000,395
1,-148,-179,1088,-121,-4000,-3895,-4000,-23
1,235,-118,570,-116,-4000,-4000,-4000,-207
1,511,-21,431,-132,-4000,-4000,-4000,-207
1,165,-112,580,4,-4000,-4000,-4000,-480
1,-102,-231,527,146,-4000,-4000,-4000,-1131
1,-51,-227,9,178,-4000,-4000,-4000,-1465
1,-474,-314,-798,183,-4000,-4000,-4000,-1078
1,-641,-199,-862,134,-4000,-4000,-4000,-1235
1,-518,83,-385,159,-4000,-4000,-4000,-1641
1,-719,208,-147,166,-4000,-4000,-4000,-1660
1,-693,266,115,130,-4000,-4000,-3130,-1954
1,-614,382,372,101,-4000,-4000,-2288,-1465
1,-500,512,690,87,-4000,-4000,-1445,-1049
1,188,605,410,156,-4000,766,1996,481
1,134,550,-285,195,-4000,1722,2256,341
1,149,498,-881,167,-4000,2633,2505,210
1,190,455,-1126,76,-4000,3491,3062,114
1,226,376,-1386,41,-4000,4000,3838,253
1,256,332,-1404,45,-4000,4000,4000,393
1,188,335,-1101,-34,-4000,4000,4000,604
1,126,347,-1261,-165,-4000,4000,4000,877
1,625,335,-1166,-212,-4000,4000,4000,1085
1,1226,288,-1010,-153,-4000,4000,4000,1272
1,1363,233,-648,-98,-4000,4000,4000,1566
1,652,224,-283,-13,-4000,4000,4000,1598
1,-251,227,-347,-47,-3706,4000,4000,1264
1,-844,174,-295,-76,-3408,3849,4000,621
1,-1300,-14,122,-23,-2484,2580,4000,-301
1,-1105,-91,123,-12,-2289,2442,4000,-192
1,-801,-63,325,-50,-2116,2356,4000,149
1,-371,-55,467,-137,-586,2319,4000,20
1,-292,-40,609,-186,3363,2377,4000,-805
1,-91,-24,663,-202,4000,2484,4000,-2181
1,11,-50,606,-247,4000,2568,4000,-2736
1,100,-108,606,-255,4000,2698,4000,-2697
1,159,-177,436,-164,4000,2758,4000,-2947
1,123,-218,324,-15,4000,2685,4000,-2248
1,79,-269,171,23,4000,2515,4000,-914
1,135,-310,65,39,4000,2162,4000,-504
1,292,-281,3,69,4000,1669,4000,-12
1,277,-211,-12,27,4000,1144,4000,839
1,313,-176,70,43,4000,608,4000,1434
1,358,-169,72,20,4000,-85,4000,1525
1,408,-179,71,-2,4000,-824,4000,1307
1,566,-187,22,-42,4000,-1307,4000,1199
1,538,-179,16,-102,4000,-1588,4000,1142
1,374,-162,13,-74,4000,-1656,4000,1236
1,303,-169,89,-94,4000,-1522,4000,1207
1,199,-179,91,-86,4000,-1160,4000,916
1,130,-188,20,22,4000,-651,4000,785
1,60,-188,-32,89,4000,-33,4000,760
1,46,-174,-128,174,4000,636,4000,511
1,42,-178,-155,163,4000,1344,2948,168
1,-9,-135,-175,26,4000,2060,1679,-222
1,-43,-149,-140,6,4000,2580,346,-545
1,-58,-192,-145,96,4000,2970,-1006,-973
1,-51,-167,-163,159,4000,3166,-2186,-1013
1,-53,-166,-101,113,4000,3296,-3000,-370
1,7,-173,-18,92,1863,3279,-3898,148
1,30,-161,-10,91,37,3101,-4000,619
1,31,-155,-45,91,-559,2971,-4000,953
1,2,-133,-55,166,-2044,2709,-4000,1142
1,-47,-71,-124,161,-4000,2314,-4000,1150
1,-82,-91,-106,31,-4000,1862,-4000,846
1,-110,-179,-66,-99,-4000,1474,-4000,671
1,-164,-200,-67,-291,-4000,1133,-4000,617
1,-227,-223,-43,-509,-4000,772,-4000,733
1,-230,-270,-63,-589,-4000,508,-4000,882
1,-120,-395,-82,-591,-4000,374,-4000,1077
1,10,-440,-78,-490,-4000,368,-4000,680
1,-40,-373,-27,-251,-4000,506,-4000,-109
1,-17,-280,12,-131,-4000,701,-4000,-458
1,81,-133,0,-102,-4000,707,-4000,-429
1,101,-10,-33,-4,-4000,394,-4000,-155
1,7,74,-96,76,-4000,-93,-4000,-724
1,-88,184,-110,183,-4000,-985,-4000,-1124
1,-122,258,-102,248,-4000,-1961,-4000,-1131
1,-123,159,-98,209,-4000,-1752,-4000,-1121
1,18,38,-61,226,-4000,-1113,-4000,-772
1,51,-46,-68,255,-4000,-968,-4000,-692
1,27,-137,-52,174,-4000,-541,-4000,-389
1,30,-155,6,81,-4000,-381,-4000,-846
1,44,-146,66,23,-4000,-351,-4000,-1583
1,2,-85,85,-49,-4000,-109,-3127,-1143
1,-78,76,61,-133,-4000,-158,-432,-61
1,-69,212,-16,-80,-4000,-236,2104,446
1,-12,335,-50,163,-4000,-331,4000,1142
1,-8,353,34,122,-4000,-665,4000,2157
1,-2,298,77,4,-4000,-1330,4000,1895
1,48,215,62,0,-4000,-1135,4000,1317
1,-3,124,80,-192,-2782,-349,4000,825
1,-12,75,75,-316,106,5,4000,339
1,-41,25,38,-373,1055,-22,4000,-56
1,-27,41,35,-357,-852,-612,4000,-68
1,-8,2,3,-230,-2904,-1615,4000,-141
1,-25,17,-24,-177,-2436,-3232,4000,-404
1,11,32,-86,-111,-3231,-3912,4000,-639
1,27,-2,-86,154,-963,-3795,4000,-858
1,19,13,6,633,2443,-3254,4000,-1143
1,-8,44,98,716,4000,-4000,4000,-1884
1,-46,3,8,663,4000,-4000,4000,-1469
1,-64,-6,50,356,4000,-4000,4000,-1168
1,-40,2,20,68,4000,-4000,4000,-1203
1,-56,-10,-31,-97,4000,-4000,4000,-1143
1,-66,26,-104,-245,4000,-4000,4000,-871
1,-112,48,-182,-458,4000,-4000,4000,-953
1,-107,38,-175,-760,4000,-3569,4000,-1274
1,-48,-3,-74,-682,4000,-2420,4000,-1917
1,-34,-33,-1,-472,4000,-1460,4000,-2324
1,0,-46,9,-420,4000,-209,4000,-2452
1,19,-73,24,-357,4000,980,4000,-2452
1,21,-56,-70,-393,4000,2056,4000,-2295
1,93,-30,-93,-493,4000,2375,4000,-2187
1,169,-24,-101,-538,4000,1519,4000,-2360
1,139,-1,-106,-420,4000,-170,2814,-2906
1,60,-12,-61,-198,4000,-2208,-1197,-2973
1,-15,-23,99,134,4000,-4000,-3590,-2714
1,-81,25,280,376,4000,-4000,-4000,-3020
1,-103,60,296,535,4000,-4000,-4000,-3553
1,-126,60,256,689,4000,-4000,-4000,-3349
1,-183,32,164,663,4000,-4000,-4000,-2649
1,-193,47,59,455,4000,-4000,-4000,-2035
1,-201,44,11,205,4000,-4000,-4000,-1189
1,-163,36,-27,91,4000,-3569,-4000,-609
1,-136,29,-91,-110,4000,-2465,-4000,-482
1,-98,-10,-79,-212,4000,-1373,-4000,-18
1,-39,-56,-83,-409,4000,25,-4000,341
1,-9,-70,-66,-517,4000,1423,-4000,686
1,33,-77,13,-263,4000,2442,-4000,1130
1,46,-122,-11,-124,4000,3265,-4000,1255
1,17,-146,-105,53,4000,3807,-4000,1509
1,-60,-149,-151,402,4000,2515,-4000,1632
1,-98,-133,-82,634,3851,518,-4000,1663
1,-32,-143,-43,415,1994,-745,-2756,1753
1,47,-98,-32,104,684,-2160,-1649,1727
1,78,-28,39,-46,-238,-2157,-1291,1768
1,106,-13,51,-283,-1333,-2420,-1095,1753
1,72,2,-11,-420,-3213,-3453,-941,1750
1,53,40,-36,-438,-3665,-4000,-244,1671
1,35,40,-57,-637,-3712,-4000,588,1496
1,33,33,-53,-724,-4000,-4000,2191,1108
1,145,54,13,-670,-3844,-2677,4000,556
1,135,57,23,-619,-4000,-714,4000,273
1,78,83,47,-328,-4000,1409,4000,14
1,105,-2,164,170,-4000,3491,4000,-129
1,85,-153,190,508,-2484,4000,4000,-198
1,76,-164,93,459,-1012,4000,4000,-294
1,55,-194,-2,374,-2045,4000,4000,-415
1,20,-179,-40,337,-4000,4000,4000,-653
1,-29,-79,-89,141,-4000,4000,4000,-744
1,-2,-26,-121,-161,-4000,4000,4000,-883
1,-8,71,-86,-222,-4000,4000,4000,-953
1,-166,174,-57,-24,-4000,4000,4000,-1083
1,-280,338,17,141,-4000,4000,4000,-1018
1,-248,526,109,362,-3855,4000,4000,-671
1,-92,590,112,307,-1825,4000,4000,-211
1,52,520,103,316,-1805,4000,4000,678
1,134,335,76,314,-983,4000,2317,1727
1,136,198,43,154,1069,4000,-986,2704
1,202,103,42,104,557,2904,-3753,3487
1,186,8,-48,-76,-1837,1994,-4000,4000
1,117,-30,-59,-122,-4000,1567,-4000,4000
1,106,-16,30,-122,-4000,807,-4000,3991
1,55,-19,77,-158,-4000,766,-4000,3487
1,15,-26,67,-151,-4000,1138,-4000,2900
1,-49,-34,-1,-106,-4000,932,-4000,2367
1,-60,-89,-103,47,-4000,919,-4000,2160
1,-81,-118,-152,177,-4000,807,-4000,1793
1,-41,-155,-87,258,-4000,953,-3236,1297
1,-47,-197,-126,267,-3972,267,-1962,1346
1,-33,-249,-240,181,-3274,-938,-1368,947
1,23,-211,-166,181,-3258,-1961,-1700,361
1,11,-135,-80,101,-3055,-4000,-2028,322
1,19,-91,-55,-151,-3172,-4000,-1690,172
1,21,-42,22,-267,-3343,-4000,-1718,37
1,4,-20,144,-303,-3653,-2570,-1635,51
1,-59,25,215,-359,-4000,-877,-1769,330
1,-76,22,167,-416,-4000,-537,-2127,631
1,-78,130,134,-263,-4000,146,-1979,1045
1,-95,177,122,-67,-4000,494,-1376,1236
1,-71,110,14,22,-4000,463,-1006,1332
1,-40,127,-60,150,-4000,498,-1616,1632
1,-29,103,-26,203,-4000,189,-2082,1663
1,-45,53,-26,244,-4000,-53,-2251,1704
1,-18,41,-33,276,-2602,-251,-2062,2111
1,32,36,-34,262,-1315,-251,-956,2640
1,38,22,-65,223,223,-161,954,3067
1,22,-19,-64,170,1660,6,2241,3654
1,32,-24,-63,142,3167,404,2700,3613
1,88,6,-38,140,4000,673,3919,3390
1,89,-3,-42,68,4000,1071,4000,3328
1,48,-15,-82,-73,4000,1417,4000,3079
1,13,-14,-129,-157,4000,1733,4000,2900
1,5,30,-107,-172,4000,2319,4000,2675
1,-8,50,-66,-247,4000,2377,4000,2380
1,-36,47,-14,-293,4000,1669,4000,2157
1,-110,32,32,-239,4000,823,4000,1958
1,-227,-3,39,-220,4000,-232,4000,1496
1,-207,3,59,-198,4000,-1648,4000,1026
1,-137,-10,50,-159,4000,-1780,4000,739
1,-32,-92,71,-30,4000,-776,4000,127
1,35,-166,87,61,4000,-264,4000,-490
1,-1,-144,55,-2,4000,267,4000,-781
1,-16,-135,0,-41,4000,119,4000,-948
1,-146,-118,-52,-34,4000,-137,4000,-1236
1,-201,-89,-42,-6,4000,283,4000,-1534
1,-136,-69,-44,53,4000,563,4000,-1656
1,-74,-46,-48,85,4000,723,4000,-1465
1,29,3,-18,74,4000,884,4000,-1534
1,95,60,-31,4,3737,563,4000,-1652
1,168,55,-30,-38,2243,-96,4000,-1531
1,407,20,-20,64,953,-537,4000,-1723
1,801,-28,-36,150,-203,-773,4000,-1998
1,929,-10,-21,88,-1495,-982,4000,-2283
1,774,-1,-24,19,-2805,-1430,4000,-2360
1,605,-44,-49,18,-4000,-1729,4000,-2344
1,501,-63,-66,26,-4000,-1800,4000,-2296
1,273,-64,-55,46,-4000,-1848,4000,-2150
1,-118,-44,-48,-48,-4000,-2250,3999,-2153
1,-567,-81,-64,-227,-4000,-2351,3999,-2230
1,-1066,-103,25,-200,-4000,-2612,4000,-2320
1,-1150,-39,152,-161,-4000,-3521,4000,-2410
1,-1170,36,152,-169,-4000,-3990,4000,-2543
1,-1090,86,92,-255,-4000,-3921,4000,-2649
1,-785,109,-8,-285,-4000,-3104,4000,-2556
1,-605,75,-89,-180,-4000,-2197,3364,-2429
1,-371,-4,-182,-190,-4000,-1688,2167,-2280
1,-457,-43,-218,-72,-4000,-1444,2126,-2051
1,-580,-34,-136,35,-4000,-1490,3494,-1706
1,-248,-36,-52,59,-4000,-1780,4000,-1298
1,5,-80,-7,95,-4000,-1823,4000,-899
1,74,-122,-17,89,4000,-1701,4000,-512
1,359,-176,-14,79,4000,-1755,4000,-240
1,442,-173,71,48,4000,-1688,1579,43
1,640,-121,179,-82,4000,-1420,-2435,304
1,863,-64,171,-216,4000,-964,-4000,604
1,733,16,164,-190,4000,-493,-4000,859
1,554,94,198,-64,4000,-185,-4000,920
1,391,208,178,-26,4000,-188,-4000,947
1,90,132,252,-53,4000,-260,-2804,882
1,-193,-24,451,-33,4000,-212,-967,766
1,-74,-3,345,-29,4000,-216,-998,621
1,303,-5,34,53,4000,-171,-2247,434
1,1167,12,-128,142,4000,-101,-3733,318
1,1492,19,-310,204,4000,-117,-4000,334
1,1104,17,-333,215,4000,-261,-4000,521
1,1167,60,-384,12,4000,-354,-4000,740
1,577,57,-320,-173,4000,-286,-4000,955
1,-396,95,-192,-145,2516,-124,-4000,1301
1,-995,122,259,4,-1228,24,-4000,1716
1,-1370,131,1810,80,-4000,203,-4000,2510
1,-1351,269,1184,272,-4000,481,-4000,3806
1,-940,316,-308,243,-4000,505,-4000,3079
1,-481,225,-2045,305,-4000,611,-4000,2380
1,-425,126,-2821,209,-4000,871,-4000,2029
1,1124,5,-2451,-376,-4000,520,-4000,26
1,1124,-8,-2021,-164,-4000,443,-4000,-976
1,786,-110,-849,205,-4000,449,-4000,-1966
1,668,-213,580,341,-4000,555,-4000,-2811
1,1504,-201,297,134,-4000,795,-4000,-4000
1,639,-218,-434,129,-4000,814,-4000,-4000
1,342,-200,-595,329,-4000,701,-4000,-4000
1,-80,-188,-829,417,-4000,747,-3599,-4000
1,-693,-93,-515,189,-4000,693,-3147,-4000
1,-1235,23,-444,85,-4000,518,-2978,-4000
1,-1455,124,728,-74,-4000,165,-2937,-4000
1,-972,112,1368,-232,-4000,209,-2899,-4000
1,-516,63,1759,-420,-4000,129,-2903,-4000
1,269,45,1835,-356,-4000,164,-2899,-4000
1,125,-27,2266,-209,-3185,201,-2756,-4000
1,-804,13,2616,44,3998,107,-2615,-4000
1,-1219,-65,2602,134,4000,44,-2146,-4000
1,-1300,-48,1692,38,4000,101,-595,-4000
1,-620,-6,171,-67,4000,235,273,-3912
1,774,-67,-632,-57,4000,672,1119,-2700
1,1372,158,-2325,81,4000,1205,2126,-852
1,1209,266,-2667,183,4000,1440,2361,-95
1,1441,314,-2737,178,4000,1604,2505,373
1,934,256,-490,3,4000,2812,4000,1065
1,647,134,-28,-86,4000,3101,4000,1258
1,60,3,866,15,4000,3283,4000,1374
1,-911,-34,1192,115,4000,3296,4000,1372
1,-1271,38,1062,272,4000,3215,4000,1258
1,-1204,5,541,449,4000,3018,4000,1077
1,-649,40,-160,426,4000,2568,4000,1012
1,-233,-83,-629,352,4000,1864,4000,1150
1,725,-72,-1020,199,4000,1138,4000,1578
1,1020,-18,178,-101,4000,282,4000,2357
1,513,-99,2746,-450,4000,-698,4000,3207
1,-1418,-2,-1280,345,4000,-3144,4000,4000
1,-897,64,-2603,-563,-4000,1012,4000,3031
1,-191,-272,-2418,-373,-4000,2056,3298,-1788
1,827,-357,-959,-112,-4000,2385,2700,-4000
1,1319,-347,-1268,56,-4000,2100,2377,-4000
1,1413,-294,-1227,63,-4000,1202,2291,-4000
1,790,244,557,248,-4000,2125,574,-4000
1,172,273,1035,177,-4000,1018,-1191,-4000
1,95,174,1156,-63,-4000,254,-3312,-4000
1,161,-19,1900,15,-4000,845,-4000,-4000
1,46,-21,2071,-129,-4000,747,-4000,-4000
1,-392,-114,2421,-217,-4000,823,-4000,-4000
1,-147,-259,2133,5,-4000,1012,-4000,-4000
1,416,-310,2213,174,-4000,730,-4000,-4000
1,855,-157,2989,258,-4000,455,-4000,-4000
1,138,174,2940,-61,-4000,-460,-4000,-4000
1,117,211,1940,-3,-4000,-451,-4000,-4000
1,86,113,152,-61,-4000,-100,-4000,-4000
1,23,-50,-702,56,-4000,-163,-4000,-4000
1,-204,-166,-833,45,-4000,-631,-4000,-4000
1,4,-203,516,-2,-4000,-838,-4000,-4000
1,-285,-143,1249,14,-4000,-1336,-4000,-4000
1,-409,-128,496,69,-4000,-1995,-4000,-4000
1,-407,-177,974,199,-4000,-2371,-4000,-4000
1,-806,-249,736,130,-4000,-3181,-4000,-1849
1,-685,-167,-1427,181,-4000,-3244,-4000,-127
1,147,-1,-1687,92,-4000,-4000,-4000,4000
1,573,82,1184,250,-4000,-4000,-4000,4000
1,652,160,1900,305,-4000,-4000,-4000,4000
1,733,154,1212,84,-4000,-3635,-4000,4000
1,721,68,276,-76,-4000,-2819,-3082,4000
1,473,-17,-417,-98,-4000,-1841,-223,4000
1,390,-47,-1297,18,-4000,-1259,967,4000
1,387,22,-2306,177,-3649,-584,-290,4000
1,377,186,-2769,258,-2875,70,-2025,4000
1,315,288,-2670,164,-1646,884,-3184,4000
1,313,316,-969,96,-168,1649,-3977,4000
1,281,315,-473,7,1328,2490,-4000,4000
1,198,164,-1126,-131,2320,3199,-4000,4000
1,77,32,-304,-157,2711,3602,-4000,2351
1,6,-52,813,-112,2842,3995,-3729,-992
1,-33,-73,1192,-79,2634,4000,-3446,-4000
1,-65,11,1517,-159,2117,4000,-3184,-4000
1,-75,45,1729,-198,1590,4000,-2939,-4000
1,-110,28,1805,-159,1018,4000,-2615,-4000
1,-124,52,1953,-57,546,3552,-1323,-4000
1,-127,56,2260,-78,365,2373,-118,-4000
1,-144,17,1900,-190,170,19,4000,-4000
1,-105,45,1247,-229,-206,953,4000,-4000
1,-116,39,394,-300,-723,2243,4000,-2392
1,-113,16,-344,-237,-708,2243,4000,4000
1,-126,-18,-776,-226,961,1328,4000,4000
1,-144,-28,-881,-185,4000,758,4000,4000
1,-127,-32,-804,-75,4000,-487,4000,4000
1,-85,-80,-855,-29,4000,-1715,4000,4000
1,-55,-57,-143,-11,4000,-1160,4000,4000
1,-91,-41,-411,-29,4000,-132,4000,4000
1,-107,-45,-898,-44,4000,845,4000,4000
1,-73,22,-801,-8,4000,2840,4000,4000
1,-80,25,-681,34,4000,4000,4000,4000
1,-72,54,-495,-44,4000,4000,2321,4000
1,-63,56,-500,-47,4000,4000,-1012,4000
1,-30,32,-470,107,4000,4000,-3407,4000
1,-37,87,-405,276,4000,4000,-4000,4000
1,-44,87,-173,420,4000,4000,-3507,4000
1,-32,160,71,455,4000,4000,-2044,4000
1,-15,304,267,390,4000,4000,-1185,4000
1,68,281,284,369,4000,4000,-305,4000
1,60,224,531,299,4000,4000,465,4000
1,45,276,1216,142,4000,4000,945,4000
1,-8,278,1574,-6,4000,4000,1390,4000
1,-30,160,996,-63,4000,4000,2582,4000
1,-25,12,671,-55,4000,4000,3086,4000
1,-89,-151,713,44,4000,4000,3038,4000
1,-86,-293,223,170,4000,4000,3411,4000
1,-61,-379,-342,215,2681,4000,3799,4000
1,11,-383,-572,189,-4000,2871,4000,4000
1,39,-353,-550,163,-4000,1055,4000,4000
1,4,-277,-507,153,-4000,-792,4000,4000
1,17,-256,-501,-103,-4000,-1781,4000,4000
1,-37,-310,-454,-241,-4000,-2107,4000,4000
1,-59,-337,-358,-267,-4000,-2353,4000,4000
1,-35,-243,-317,-460,-4000,-2567,4000,4000
1,-82,-155,-169,-532,-4000,-2274,4000,2443
1,-117,-203,-107,-517,-4000,-1835,4000,-3785
1,-201,-247,-19,-440,-4000,-1107,4000,-4000
1,-200,17,-14,-466,-4000,-267,4000,-4000
1,-101,304,-209,-373,-4000,-662,4000,-4000
1,-42,446,-283,-8,-4000,-1290,4000,-4000
1,55,460,-188,221,-4000,-2054,4000,-4000
1,168,306,-6,223,1032,-3270,4000,-4000
1,146,179,-46,81,4000,-4000,4000,-4000
1,76,1,-170,-175,4000,-4000,4000,-4000
1,59,-140,-124,-263,4000,-4000,4000,-4000
1,-2,-267,-25,-84,4000,-4000,4000,-4000
1,-55,-401,3,-45,-3391,-4000,4000,-4000
1,-126,-301,42,-128,-4000,-4000,4000,-4000
1,-101,-207,109,-164,-4000,-4000,4000,-4000
1,-25,-318,66,-160,-4000,-4000,4000,-4000
1,-51,-314,13,3,-4000,-4000,4000,-4000
1,-74,-314,26,108,-4000,-4000,4000,-4000
1,-94,-305,89,105,-4000,-4000,4000,-3060
1,-96,-234,105,164,-4000,-3910,4000,-739
1,-43,-141,57,113,-4000,-3974,4000,2176
1,-127,215,10,48,-4000,-4000,4000,4000
1,-152,599,35,118,-4000,-4000,4000,4000
1,-156,502,-7,123,-4000,-4000,521,4000
1,-39,326,-2,85,-4000,-4000,203,4000
1,46,75,4,2,-4000,-4000,32,4000
1,58,-116,-17,-90,-4000,-4000,-532,4000
1,28,-236,-17,-161,-4000,-4000,-1179,4000
1,10,-362,178,-218,-3858,-4000,-1462,4000
1,77,-215,622,-255,-1548,-4000,-1718,4000
1,51,-40,914,-239,1800,-4000,-2703,4000
1,-31,24,777,-168,3400,-4000,-4000,4000
1,-126,172,402,-153,4000,-3649,-4000,4000
1,-39,420,44,-103,4000,-3209,-4000,4000
1,168,521,-320,-52,2255,-2337,-4000,4000
1,277,514,-637,-30,2516,-1313,-4000,4000
1,212,363,-743,14,3085,-167,-4000,4000
1,66,243,-752,-14,4000,1012,-4000,4000
1,15,46,-625,-52,3462,1669,-4000,4000
1,-43,-149,-597,-99,3688,2188,-4000,4000
1,-31,-59,-711,-97,4000,2515,-4000,4000
1,6,55,-702,-86,4000,2840,-4000,4000
1,9,134,-681,-68,4000,3296,-4000,3014
1,-12,195,-503,37,4000,3670,-4000,1402
1,-37,207,-295,3,4000,3980,-4000,-240
1,-37,29,-217,-51,4000,4000,-4000,-1664
1,-94,-59,-98,-96,4000,4000,-4000,-3024
1,-81,-65,8,-78,4000,3609,-4000,-4000
1,-94,-94,93,-2,4000,2243,-4000,-4000
1,-128,-50,196,-30,4000,180,-4000,-4000
1,-110,-98,280,-17,4000,-1135,-4000,-4000
1,-110,-142,345,13,4000,-680,-4000,-4000
1,-49,-207,390,49,4000,2115,-4000,-4000
1,8,-220,380,90,4000,4000,-4000,-4000
1,35,-154,316,80,4000,4000,-3455,-4000
1,-1,-140,280,52,4000,4000,-3130,-4000
1,-90,-87,263,33,4000,4000,-4000,-4000
1,-159,33,253,73,4000,4000,-4000,-4000
1,-187,135,256,112,4000,4000,-4000,-4000
1,-117,269,331,32,4000,4000,-4000,-4000
1,3,212,439,92,4000,4000,-4000,-4000
1,74,36,628,244,4000,4000,-4000,-4000
1,97,51,988,305,4000,4000,-4000,-4000
1,90,-10,828,276,4000,4000,-3924,-4000
1,2,-146,658,236,4000,-4000,-3532,-4000
1,-51,-215,1021,172,4000,-4000,-3000,-4000
1,-33,-259,410,105,4000,-4000,-2159,-4000
1,-20,-301,-334,66,4000,-4000,-1076,-4000
1,-31,-259,-403,-2,4000,-4000,-651,-4000
1,-11,-167,-547,-42,4000,-4000,-1183,-1843
1,55,-257,-501,-104,4000,-4000,-1657,-946
1,49,-393,-206,-141,4000,-4000,-228,-2401
1,49,-330,24,-192,4000,-4000,1670,-2862
1,42,-197,-267,-238,4000,-4000,2777,-1531
1,54,-7,-773,-159,4000,-4000,2444,-934
1,125,154,-906,-47,4000,-4000,1670,-1263
1,97,174,-976,-37,4000,-4000,1721,-723
1,127,79,-893,-25,4000,-2705,1027,-759
1,136,74,-731,60,4000,380,-939,-1274
1,60,282,-711,95,4000,2568,-2573,-1957
1,74,247,-840,40,4000,3849,-1291,-1469
1,90,237,-957,-13,2491,4000,819,-584
1,-2,189,-662,-71,-387,4000,2256,-1103
1,-110,-47,-403,-121,-2668,4000,4000,-1468
1,-156,-87,-184,-151,-3213,3472,4000,-1042
1,-82,-155,183,-249,-2016,2515,4000,-597
1,97,-130,451,-175,-4,1777,3624,-1070
1,211,-66,415,-5,1578,2489,652,-1404
1,184,62,259,69,1270,3472,-1231,-1267
1,48,132,85,156,-164,3837,-598,-869
1,-86,103,39,282,-661,3552,672,-1192
1,-78,140,272,272,-803,2840,2058,-1465
1,6,29,736,170,-1202,1799,2682,-622
1,31,-55,1184,141,-1012,640,1206,-244
1,32,-108,1119,69,-511,-450,-2174,-22
1,39,-83,892,20,-31,-1396,-4000,279
1,25,42,596,-61,432,-2095,-4000,251
1,19,126,568,-125,-180,-2677,-3320,279
1,3,82,543,-124,-1650,-2853,1722,276
1,-4,108,162,-129,-3054,-2963,4000,302
1,43,205,-78,-122,-4000,-2987,4000,241
1,62,247,2,-109,-4000,-2998,4000,209
1,23,306,215,-91,-4000,-3169,4000,267
1,-25,298,-101,-86,-4000,-3555,4000,279
1,-4,229,-560,-38,-4000,-4000,4000,339
1,4,136,-810,-30,197,-4000,2972,352
1,-18,83,-1101,0,4000,-4000,2492,413
1,-15,0,-1085,6,4000,-4000,1760,534
1,-55,-11,-1215,0,4000,-4000,-134,743
1,-92,67,-1166,-61,4000,-3781,-2403,947
1,-153,2,-801,-116,3334,-3275,-1977,1138
1,-181,-22,-507,-48,2060,-2857,1007,1313
1,-165,-43,-153,-79,2255,-2250,3559,1574
1,-119,-102,42,-108,1638,-1522,4000,2054
1,-10,-42,510,-139,-2175,-525,4000,2313
1,64,9,1023,-151,-4000,820,4000,2290
1,51,20,1062,-131,-4000,2356,4000,2313
1,-3,44,1379,-112,-4000,4000,2749,2302
1,-9,50,1630,-28,-4000,4000,687,2054
1,-6,40,882,3,-4000,4000,-233,2309
1,-62,-13,987,-12,-4000,4000,-1421,3014
1,-56,-18,1212,-20,-4000,4000,-4000,3731
1,33,-25,996,16,-4000,4000,-4000,4000
1,107,-164,742,41,-4000,4000,-3623,4000
1,194,-275,-300,73,-4000,4000,-2859,4000
1,204,-474,-801,85,-4000,4000,-3376,3831
1,73,-602,-1166,62,-4000,4000,-2247,3943
1,-68,-505,-1215,40,-4000,4000,-1718,3845
1,-111,-261,-1344,43,-4000,4000,-1830,3269
1,-121,19,-1577,43,-4000,4000,-2317,2680
1,-118,160,-1321,-8,-4000,4000,-3717,1924
1,-80,154,-1101,-79,-4000,4000,-4000,788
1,-98,74,-409,-141,-4000,4000,-4000,-622
1,-111,115,14,-141,-4000,4000,-4000,-1428
1,-45,63,55,-153,-4000,4000,-4000,-1469
1,-67,-8,227,-129,-4000,4000,-4000,-1428
1,-44,-13,390,-74,-4000,4000,-4000,-480
1,34,57,168,-44,-4000,4000,-3326,1065
1,74,97,97,10,-4000,4000,-1197,2249
1,82,116,85,74,-4000,4000,-264,2616
1,-60,359,171,64,-4000,4000,-41,2371
1,-156,511,425,-23,-3852,4000,294,2575
1,-216,498,1062,-44,-1183,4000,367,2939
1,-197,477,1808,-7,2224,4000,172,3079
1,-146,380,1009,-25,4000,4000,85,2770
1,-54,203,172,-40,4000,4000,-108,2437
1,113,70,-450,-6,4000,4000,-359,2111
1,159,-77,-1154,-12,4000,4000,-1194,1606
1,169,-340,-1293,-55,4000,4000,-2208,1384
1,110,-570,-762,-61,4000,4000,-3130,1324
1,90,-540,1127,-116,4000,4000,-4000,646
1,38,-344,1025,-72,4000,4000,-4000,114
1,3,-179,-48,-62,4000,4000,-4000,-684
1,-7,-66,-482,-71,4000,1900,-4000,-1058
1,-109,-117,-1081,12,4000,-12,-4000,-1229
1,-136,-133,-1061,90,4000,-1701,-3711,-973
1,-123,-141,-637,96,4000,-3181,-1431,-334
1,-61,14,172,90,4000,-4000,755,-268
1,-59,34,1833,73,4000,-4000,2883,-280
1,-150,60,2616,12,4000,-4000,4000,-329
1,-87,148,1770,-9,4000,-4000,4000,-132
1,-53,24,430,0,4000,-4000,4000,-59
1,-56,4,-413,-39,4000,-4000,4000,-427
1,0,18,-1230,-64,4000,-4000,4000,-750
1,-16,98,-1419,-52,2163,-4000,3103,-1018
1,-19,79,-908,18,-2205,-4000,2429,-1267
1,22,76,-377,20,-4000,-4000,3233,-1761
1,54,95,77,-48,-4000,-4000,4000,-2090
1,82,38,-324,-116,-4000,-4000,4000,-1339
1,86,-21,-977,-46,-4000,-4000,4000,-288
1,5,-72,-816,14,-4000,-4000,4000,-280
1,-8,6,-753,-33,-4000,-4000,4000,-446
1,35,80,-572,-2,-4000,-4000,2843,-744
1,47,159,-567,-30,-4000,-4000,1392,-1018
1,135,201,-529,-78,-4000,-4000,-513,-1269
1,120,196,-519,-135,-4000,-4000,-2791,-1391
1,49,174,-463,-116,-4000,-4000,-3977,-1135
1,94,91,-517,-92,-4000,-4000,-4000,-944
1,71,44,-595,-61,-4000,-4000,-4000,-571
1,41,-10,398,-11,-4000,-4000,-4000,-946
1,55,-91,1314,-23,-1440,-4000,-4000,-1245
1,31,-161,1806,-15,1734,-4000,-4000,-1131
1,-46,-122,1538,-52,4000,-4000,-4000,-1656
1,-123,-30,707,-54,4000,-4000,-3977,-2230
1,-210,-26,-113,-4,4000,-4000,-2109,-1917
1,-295,-17,-454,-9,4000,-4000,-962,-753
1,-236,33,-385,8,4000,-4000,170,-251
1,-91,99,516,41,4000,-3685,1441,-6
1,-25,148,1485,-13,4000,-3323,2711,878
1,4,92,1568,-76,4000,-2987,3086,1753
1,-36,45,1361,-56,4000,-2638,2633,1915
1,-44,-29,-409,-28,4000,-2286,1864,1443
1,-53,-88,-1406,-7,4000,-1943,1569,1205
1,-81,-149,-1036,47,4000,-1522,2118,686
1,-90,-202,-1166,81,4000,-1005,2049,-327
1,-149,4,-1386,130,4000,-578,1723,-1204
1,-234,201,-1353,121,2190,-195,1149,-1761
1,-422,247,-430,26,-26,193,-737,-1571
1,-565,190,-98,-52,-2708,498,-2536,-1018
1,-517,47,-632,-59,-3966,713,-3592,-664
1,-354,-85,-841,-21,-4000,896,-4000,28
1,-86,-206,-711,22,-4000,1055,-4000,487
1,351,-84,48,14,-4000,1098,-4000,486
1,762,-53,2486,-39,-4000,1092,-4000,721
1,82,-110,-276,-106,-4000,959,-4000,286
1,-1254,63,-1199,156,-4000,1799,4000,499
1,-1281,160,-768,142,-4000,1994,4000,-319
1,-1170,239,-693,108,-4000,2165,4000,-1725
1,-674,159,-139,115,-4000,2319,4000,-2975
1,-185,54,-52,18,-4000,2448,4000,-3333
1,260,-120,33,-116,-4000,2515,4000,-3089
1,691,-163,1444,-168,-4000,2568,4000,-3199
1,1087,-69,2729,-92,-4000,2580,4000,-3024
1,457,355,3007,-93,-4000,2680,4000,-1998
1,55,514,2054,-46,-4000,2644,4000,-1298
1,-32,371,1608,52,-4000,2580,4000,-679
1,155,253,1444,75,-4000,2580,4000,-527
1,0,239,1691,71,-4000,2695,4000,-264
1,-227,168,1900,18,-4000,2775,4000,-30
1,-376,75,1127,-251,-4000,2871,3919,426
1,-409,-75,15,-287,-4000,2940,2321,528
1,-128,-109,-1022,-175,-4000,2904,1711,373
1,-91,-151,-1319,-223,-4000,2840,1448,174
1,-77,-304,-840,-50,-4000,2680,2375,50
1,15,-338,-385,199,-4000,2421,4000,-625
1,77,-332,158,323,-799,2100,4000,-1245
1,-91,-334,-279,598,4000,1604,4000,-886
1,-453,-272,-1215,701,4000,1082,4000,-586
1,-588,-163,-1491,425,4000,433,4000,-44
1,-714,-27,-1679,423,4000,-236,4000,320
1,-719,44,-789,410,4000,-851,4000,361
1,-706,119,657,327,4000,-1396,4000,395
1,-588,142,1810,69,4000,-1902,4000,198
1,855,-267,2616,-298,4000,-3144,4000,645
1,813,-77,1289,-284,4000,-3110,4000,733
1,591,90,-1016,-36,4000,-3010,4000,882
1,-58,213,-2578,193,4000,-2596,1670,377
1,-444,94,-2253,-49,4000,-2208,-1527,-256
1,-836,-215,-922,-202,4000,-1752,-4000,-679
1,-584,-448,-610,-226,4000,-1273,-4000,-1217
1,825,-399,-2851,-361,4000,-25,-4000,-1624
1,711,-356,-2559,-164,4000,154,-4000,-914
1,342,-173,-2578,-19,4000,124,-4000,336
1,-125,9,-1832,-65,4000,620,-4000,941
1,-632,-22,-908,-131,1930,1069,-4000,263
1,-816,28,-89,-110,-680,1397,-4000,-692
1,-567,162,148,-94,4000,1387,-4000,-2491
1,-719,233,131,-94,4000,1119,-4000,-4000
1,-706,213,243,-14,4000,396,-4000,-4000
1,-641,60,69,31,4000,-985,-4000,-4000
1,-392,-76,720,-6,4000,-3062,-4000,-4000
1,315,-153,1770,-13,4000,-4000,-4000,-4000
1,827,-199,2266,-69,4000,-4000,-4000,-4000
1,1059,-242,2073,-22,4000,-4000,-4000,-1735
1,1173,-128,1900,-63,4000,-4000,-4000,469
1,1086,53,2330,-28,4000,-4000,-4000,2639
1,774,203,2343,69,4000,-4000,-4000,4000
1,408,347,2225,29,4000,-4000,-4000,4000
1,224,239,2201,19,4000,-4000,-4000,4000
1,193,338,982,15,3794,-4000,-4000,4000
1,-5,526,-1036,7,3474,-4000,-4000,4000
1,-218,559,-2479,35,3464,-4000,-4000,4000
1,-98,489,-2478,76,-3321,1901,-4000,4000
1,3,465,-1925,177,-4000,2580,-4000,4000
1,204,477,-1338,238,-4000,2644,-4000,4000
1,233,408,-463,203,-4000,2116,-4000,4000
1,5,347,-306,199,-4000,1352,-4000,4000
1,-51,372,49,317,-4000,466,-4000,4000
1,-297,387,923,329,-2144,-379,-4000,4000
1,-490,347,1302,244,3102,-1010,-3753,4000
1,-569,323,1692,132,4000,-1259,-2384,3979
1,-632,376,1444,81,4000,-920,-933,3161
1,-584,371,858,-14,130,129,9,2184
1,-584,363,501,-99,-4000,1923,989,1307
1,-457,363,366,-50,-4000,4000,2049,631
1,-337,306,557,-42,-4000,4000,2517,296
1,-180,227,463,36,-4000,4000,2647,163
1,-54,133,243,27,-4000,4000,2972,36
1,32,-30,160,-51,-4000,4000,3134,-98
1,72,-173,169,-86,-4000,4000,3214,-513
1,145,-170,101,-38,-4000,4000,3754,-883
1,224,-118,-85,16,-4000,4000,4000,-1143
1,195,-148,48,-2,-4000,4000,4000,-1380
1,172,-232,107,7,-4000,4000,4000,-1583
1,119,-213,2,9,-4000,4000,4000,-1803
1,74,-161,410,40,-4000,4000,4000,-1809
1,117,-130,929,-23,-4000,4000,4000,-1803
1,176,-69,899,-36,-4000,4000,4000,-1648
1,107,-86,606,-52,-1422,4000,4000,-1530
1,104,-77,410,-35,4000,4000,4000,-1452
1,144,-14,34,91,4000,4000,4000,-1321
1,117,-52,-73,89,4000,4000,4000,-1274
1,97,-118,328,99,4000,4000,4000,-1204
1,126,-93,457,6,4000,4000,4000,-1229
1,200,-12,-227,-93,4000,4000,4000,-1318
1,183,-40,-469,-180,3363,4000,4000,-1387
1,123,-71,-702,-297,2386,4000,4000,-1404
1,78,-62,-1143,-320,1279,3916,4000,-1453
1,14,-45,-1028,-303,-2678,2904,4000,-1310
1,-43,-57,-801,-180,-4000,1669,4000,-1018
1,-56,-48,-324,-188,-4000,193,4000,-953
1,-66,21,-194,-226,-4000,-1457,4000,-793
1,-90,-75,-68,26,-4000,-3405,4000,-976
1,-111,-151,-84,203,-4000,-4000,4000,-1464
1,-159,-174,6,160,-2704,-4000,4000,-1860
1,-143,-259,152,170,188,-4000,4000,-2442
1,-119,-331,142,150,3399,-4000,4000,-2811
1,-91,-347,280,150,4000,-4000,4000,-2975
1,-66,-368,193,108,2971,-4000,4000,-2710
1,-67,-273,43,11,912,-4000,4000,-2800
1,-59,-231,-11,61,-1129,-4000,4000,-2736
1,-31,-206,63,77,-3773,-4000,4000,-2104
1,-18,-150,82,69,-4000,-4000,4000,-1764
1,-43,-177,154,124,-4000,-4000,4000,-1381
1,-5,-119,169,72,-4000,-4000,4000,-1531
1,37,-58,97,-18,-4000,-4000,4000,-1363
1,80,20,33,-85,-4000,-4000,4000,-875
1,74,26,-24,-84,-4000,-4000,4000,-610
1,15,-14,-73,-2,-4000,-4000,4000,100
1,13,23,-167,23,-4000,-4000,4000,369
1,-3,-10,-194,28,-3298,-4000,4000,377
1,-10,44,-141,-31,-2040,-4000,-210,389
1,-1,15,-63,-36,-398,-4000,-4000,264
1,28,-56,-90,111,352,-4000,-4000,139
1,40,-78,9,310,2360,-4000,-2549,-37
1,27,-166,42,364,4000,-4000,1532,-105
1,-6,-161,2,218,4000,-4000,3168,-175
1,-85,-201,44,129,4000,-4000,4000,-131
1,-77,-214,7,108,4000,-4000,4000,8
1,-46,-155,-61,23,4000,-4000,4000,241
1,-40,-30,-74,-84,4000,-3309,4000,564
1,-54,82,-74,-21,4000,-2677,4000,854
1,-88,86,-148,-9,4000,-1313,1442,1138
1,-66,-13,-125,-103,4000,209,-2968,1403
1,-26,-69,-77,-57,4000,1134,-4000,1513
1,-12,-118,-107,-57,4000,1191,-4000,1533
1,-23,-162,-84,-175,4000,508,-4000,1531
1,29,-66,-119,-397,4000,-1591,-4000,1468
1,32,-51,-138,-450,4000,-3649,-4000,1598
1,23,1,-84,-359,4000,-2367,-4000,1663
1,24,87,-21,-350,4000,91,-4000,1793
1,4,203,31,-285,4000,823,-4000,1918
1,15,276,55,-135,4000,1134,-4000,2040
1,81,294,99,260,4000,1531,-4000,2290
1,-34,143,47,614,4000,4000,-4000,2054
1,-33,94,77,369,3982,4000,-4000,1468
1,-31,94,-21,56,2320,4000,-4000,947
1,-40,47,-156,-271,1721,4000,-4000,214
1,-64,-161,112,-784,-3638,4000,-4000,-4000
1,-64,-107,115,-637,-4000,3591,-4000,-4000
1,-96,-122,142,-260,-4000,2255,-3592,-4000
1,-89,-146,85,32,-4000,807,1801,-4000
1,-55,-136,22,91,-4000,1567,4000,-4000
1,12,-137,18,128,-4000,1140,4000,-4000
1,9,-118,-86,6,-4000,-1835,4000,-4000
1,-78,-118,-165,-226,-4000,-4000,4000,-4000
1,-67,21,-223,-421,-4000,-4000,4000,-4000
1,-43,160,-202,-503,-4000,-4000,4000,-4000
1,-36,159,-45,-332,-4000,-4000,4000,-3870
1,-77,133,137,-72,-4000,-4000,4000,-3644
1,-90,41,169,320,-4000,-4000,4000,-3397
1,-36,-49,73,756,-4000,-4000,4000,-3305
1,-43,-54,18,298,-4000,-4000,4000,-3644
1,41,-7,-27,68,-4000,-4000,3364,-3653
1,37,10,-21,-169,-4000,-4000,2126,-3319
1,64,3,-6,-344,-4000,-4000,1314,-2621
1,40,3,-23,-365,-4000,-3494,795,-1746
1,23,-33,-56,-521,-4000,-2465,1314,-703
1,24,-37,-119,-568,-4000,-907,2444,472
1,70,-43,-127,-393,-4000,458,3294,1272
1,45,-39,1,54,-4000,2442,3661,2639
1,48,11,-52,170,-3408,4000,4000,4000
1,62,26,-181,-523,-3131,4000,4000,4000
1,4,47,331,-654,1612,4000,4000,3719
1,9,60,306,-350,2646,4000,4000,3014
1,29,86,328,-133,3468,4000,4000,2437
1,18,87,254,-88,4000,4000,4000,1727
1,-38,87,125,-290,4000,4000,4000,947
1,-50,65,12,-198,4000,4000,4000,108
1,-32,44,-61,207,4000,4000,4000,-793
1,-3,4,-65,467,4000,4000,2570,-1438
1,22,-31,-110,417,4000,3398,758,-1925
1,40,-28,-39,508,4000,433,-1462,-2415
1,34,-16,2,569,4000,1899,-3729,-2584
1,32,-8,-49,341,4000,2710,-4000,-2556
1,-22,65,-36,238,4000,4000,-4000,-2377
1,-16,176,-84,-2,4000,4000,-4000,-2082
1,-18,269,-101,-271,4000,4000,-4000,-1495
1,-74,256,-72,-251,4000,4000,-4000,-486
1,-66,193,-63,12,4000,3785,-4000,678
1,-17,148,-111,251,4000,2503,-4000,1750
1,25,87,-167,382,4000,1319,-4000,2816
1,59,40,-165,426,4000,678,-4000,3939
1,296,16,-173,304,4000,-144,-4000,4000
1,697,1,-139,115,4000,-1747,-4000,4000
1,1029,-39,-112,276,4000,-3911,-4000,4000
1,1156,-52,-75,454,610,-4000,-4000,4000
1,929,-31,-7,268,-4000,-4000,-4000,4000
1,473,-60,40,137,-4000,-4000,-4000,4000
1,5,-20,55,-83,-4000,-4000,-4000,4000
1,-441,56,11,-316,-4000,-4000,-4000,4000
1,-759,116,3,-356,-4000,-4000,-4000,4000
1,-1013,149,-21,-282,-4000,-4000,-4000,4000
1,-1129,103,-48,-135,-4000,-4000,-4000,4000
1,-1129,68,-68,11,-4000,-4000,-3444,3127
1,-1039,24,2,226,-4000,-4000,-3326,1281
1,-979,-88,120,336,-4000,-4000,-3965,-101
1,-972,-145,124,341,-4000,-4000,-4000,-1957
1,-779,-143,74,516,-4000,-4000,-4000,-3984
1,-117,-18,-18,630,-4000,-4000,-780,-4000
1,80,-13,1,258,-4000,-4000,3602,-4000
1,167,2,-10,102,-4000,-4000,4000,-3072
1,384,-16,-33,-151,-4000,-4000,4000,-2090
1,442,-81,6,-473,-4000,-4000,4000,-1339
1,465,-84,-27,-757,-4000,-4000,4000,-732
1,640,-110,-46,-784,4000,-4000,4000,525
1,652,-122,72,-466,4000,-3860,4000,1207
1,448,-111,74,-100,4000,-3260,4000,1592
1,241,-118,63,156,4000,-2869,4000,2054
1,574,-122,113,162,4000,-2287,4000,2550
1,880,-130,107,63,4000,-1047,4000,2876
1,762,-88,87,154,4000,-612,4000,3144
1,501,-64,74,337,4000,-289,1735,3006
1,228,-71,54,394,4000,988,54,2705
1,108,-30,43,272,2163,2356,-1718,2367
1,55,-5,-36,52,-107,2893,-3130,2154
1,-14,-14,-118,-90,-1303,2821,-3579,1704
1,97,18,-103,-163,-1797,3036,-3455,1246
1,82,60,-122,-152,-1658,3463,-3432,827
1,175,65,-152,-137,-1257,4000,-3855,403
1,-134,53,-73,-178,123,4000,-4000,-136
1,-742,114,0,-186,1065,4000,-4000,-948
1,-1170,92,-32,-185,1539,3526,-3898,-1530
1,-1235,50,-99,16,4000,1539,-3017,-2746
1,-1096,49,-26,77,4000,831,-3053,-2934
1,-846,-18,-14,150,4000,-358,-2270,-2811
1,-515,14,-30,169,4000,-1062,-1700,-2672
1,-154,-24,-6,166,4000,-1755,-1230,-2543
1,28,-112,-5,183,4000,-2274,-1169,-2746
1,100,-52,-60,170,4000,-2268,-1494,-2811
1,176,-26,-71,171,4000,-1688,-1071,-2763
1,226,-39,-24,156,4000,-1030,-465,-2746
1,319,-66,-44,54,4000,-928,-19,-2700
1,436,-55,-32,-28,4000,-1226,224,-2906
1,494,-79,65,-92,4000,-1848,193,-3007
1,465,-56,52,-183,4000,-2315,-258,-2995
1,625,-31,5,-287,4000,-2635,-768,-2901
1,889,-14,6,-381,4000,-2465,-1055,-2685
1,934,-6,-29,-376,3354,-1815,-1124,-2476
1,733,-23,19,-225,-92,-1255,-1070,-2283
1,459,6,-38,-115,-3624,-501,-1108,-2003
1,384,16,-20,-29,-4000,534,-1699,-1664
1,277,5,88,101,-4000,1567,-2024,-1344
1,-43,-24,6,194,-4000,2698,-2251,-1078
1,-270,-31,18,329,-4000,3849,-2707,-899
1,-171,-19,114,402,-4000,4000,-2273,-692
1,-295,-59,123,286,-4000,4000,-1071,-527
1,-361,-154,69,27,-4000,4000,150,-280
1,-58,-105,55,-206,-4000,4000,960,-125
1,-53,-113,-27,-289,-4000,4000,1965,-93
1,203,-171,-116,-287,-4000,4000,2942,-80
1,397,-148,-118,-256,-4000,4000,3411,-163
1,212,-174,-102,-249,-4000,4000,3754,-198
1,93,-89,-112,-190,-4000,4000,3335,-232
1,74,-35,-200,-55,-4000,4000,2582,-334
1,104,-42,-3,118,-4000,4000,1931,-398
1,-209,-11,478,174,-4000,4000,1006,-386
1,-443,-10,724,-15,-4000,4000,571,-268
1,-422,28,402,-220,-4000,4000,571,-137
1,-126,85,-36,-482,-4000,4000,441,4
1,607,71,-389,-522,-4000,4000,0,117
1,865,81,-93,-366,-4000,4000,-433,251
1,176,118,728,-115,-3445,3605,-216,312
1,-444,87,777,210,-2224,628,-72,296
1,-605,45,569,320,-1459,-1196,249,296
1,-942,-26,172,455,-980,-1615,146,253
1,-1026,-85,-345,508,-223,-1170,-477,226
1,-996,-96,104,598,856,-1237,-875,188
1,-610,-161,697,532,1863,-2208,-1229,63
1,-131,-239,511,245,2895,-3117,-998,-16
1,-342,-223,549,79,4000,-4000,-510,-31
1,-453,-154,311,-38,4000,-4000,-122,-80
1,-467,1,-207,-170,4000,-4000,22,-113
1,-246,118,-450,-232,4000,-4000,-37,-166
1,-172,149,-1072,-2,4000,-4000,-300,-198
1,342,168,-754,163,4000,-4000,-1095,-269
1,1229,139,-529,144,4000,-4000,-1974,-360
1,1173,148,-514,118,4000,-4000,-2846,-331
1,1319,172,-969,-82,3737,-4000,-3472,-297
1,1535,85,-1925,-388,-1267,-4000,-3863,-157
1,827,20,-2438,-437,-4000,-4000,-3977,48
1,-553,270,-2710,44,-4000,-3524,-2821,597
1,-517,273,-1931,180,-4000,-3708,-2573,991
1,139,276,-906,262,-4000,-4000,-2467,1399
1,-49,225,-178,139,-4000,-4000,-2096,1793
1,-523,132,475,142,-4000,-4000,-1382,2117
1,-820,85,1127,163,-4000,-4000,-819,2357
1,-700,103,1615,221,-4000,-4000,-615,2445
1,-432,174,1951,345,-4000,-4000,219,2548
1,-547,273,2266,358,-4000,-4000,1145,2575
1,-586,288,2551,257,-4000,-4000,1540,2563
1,116,328,2130,63,-4000,-1997,1599,2575
1,168,313,1444,-14,-4000,-36,1475,2628
1,159,172,976,-71,-2550,1051,1508,2510
1,927,177,1039,23,692,1844,1441,2313
1,1417,103,1175,161,3998,2243,1127,2111
1,790,-94,-458,-291,4000,2308,2375,1781
1,180,-150,-127,-618,4000,2428,2777,1663
1,32,-155,-814,-739,4000,2515,2570,1533
1,696,-142,-1491,-505,4000,2450,2036,1399
1,1159,-12,-1321,-182,4000,2421,1866,1138
1,595,98,-690,66,4000,2450,2760,853
1,798,-179,-1362,326,4000,2491,4000,-327
1,-49,-156,-937,207,4000,2375,3555,-805
1,-1430,-222,-798,150,4000,2125,2896,-1143
1,1507,1,1035,317,2872,-401,1982,-3280
1,-1365,-414,-367,720,4000,-197,4000,-2429
1,654,-491,149,699,4000,1537,1760,-2906
1,342,-168,-233,-46,4000,-334,-4000,-3861
1,-98,-215,419,26,4000,464,-4000,-3905
1,82,-207,1114,22,4000,961,-4000,-3839
1,129,-121,1538,93,4000,1787,-4000,-3712
1,86,-72,1875,72,4000,2320,-4000,-3644
1,-67,-6,2130,77,4000,2484,-4000,-3644
1,35,110,2937,-114,4000,2684,-4000,-3540
1,342,208,2615,27,3213,4000,-4000,-4000
1,790,215,1951,74,2971,4000,-4000,-4000
1,563,282,1306,-12,2711,4000,-4000,-4000
1,342,328,23,69,2516,3664,-4000,-4000
1,147,264,-358,137,1930,3409,-4000,-4000
1,238,152,-491,205,-797,3166,-4000,-4000
1,18,113,-971,183,-4000,2385,-4000,-4000
1,-474,74,-711,146,-4000,1661,-4000,-4000
1,-444,110,-269,-20,-4000,1026,-4000,-4000
1,-620,147,-233,-225,-4000,466,-4000,-4000
1,-584,132,-381,-226,-4000,-126,-4000,-4000
1,-547,117,-20,-393,-4000,-680,-4000,-4000
1,-623,-69,-37,-670,-4000,-1054,-4000,-4000
1,-474,-243,-563,-770,-4000,-1526,-4000,-2700
1,-157,-391,-875,-623,-4000,-2014,-4000,-1179
1,235,-551,-1166,-458,-4000,-2268,-4000,-380
1,472,-530,-1629,-139,-4000,-2457,-4000,-427
1,635,-293,-1919,156,-4000,-2571,-4000,-781
1,654,-217,-1796,226,-4000,-2612,-4000,-431
1,537,-300,-1367,118,-4000,-2626,-4000,563
1,365,-300,-645,22,-4000,-2506,-4000,1859
1,382,-253,223,207,-4000,-2335,-4000,3352
1,245,-173,882,356,-4000,-2141,-4000,4000
1,192,-127,2018,441,-4000,-1949,-4000,4000
1,139,-20,2604,329,-4000,-1794,-4000,4000
1,39,-56,1744,210,-4000,-1715,-4000,4000
1,42,-10,1613,79,-4000,-1615,-4000,4000
1,-24,99,2551,-122,-4000,-1430,-4000,4000
1,-14,56,2352,-223,-4000,-1255,-4000,4000
1,-92,80,1224,-181,-4000,-1135,-4000,4000
1,-91,118,397,-59,-4000,-1005,-4000,4000
1,-136,143,-269,-30,-4000,-877,-4000,4000
1,-145,145,-601,98,-3799,-663,-4000,4000
1,-108,160,-1844,160,560,-337,-4000,4000
1,-71,160,-2723,158,4000,65,-4000,4000
1,20,164,-2851,199,4000,1378,-4000,4000
1,-8,132,-2385,146,4000,1721,-3753,4000
1,-39,193,-1612,107,4000,2255,-1916,4000
1,-85,141,-894,183,4000,3101,807,4000
1,-179,95,-221,240,4000,3148,4000,4000
1,-221,30,413,260,4000,2019,4000,4000
1,-239,-70,777,276,4000,345,4000,4000
1,-221,-96,1035,227,4000,-1495,4000,2816
1,-122,-110,1257,131,-4000,-2401,4000,2302
1,-90,-63,1161,69,-4000,-932,4000,876
1,-70,23,1175,34,-4000,1309,4000,-817
1,-21,81,1053,-13,-4000,2319,4000,-1756
1,-20,117,1032,-72,-4000,2500,4000,-1589
1,12,97,858,-156,-4000,1856,4000,-944
1,15,56,450,-153,-4000,1258,4000,-1236
1,-44,58,215,-131,-4000,463,4000,-2540
1,-61,74,171,-131,-4000,628,4000,-4000
1,-76,49,223,-89,-4000,1417,4000,-4000
1,-96,-42,162,-110,-4000,1539,4000,-4000
1,-79,-146,71,-111,-4000,1502,4000,-4000
1,-40,-183,-230,-15,-4000,-877,4000,-4000
1,-45,-177,-579,-23,-4000,-4000,4000,-4000
1,-69,-138,-350,-27,-4000,-4000,4000,-4000
1,-12,-118,-165,-56,-4000,-4000,4000,-4000
1,25,-36,-94,-74,-4000,-4000,4000,-4000
1,25,34,205,-57,-4000,-4000,4000,-4000
1,-20,-12,46,-32,-3001,-4000,3298,-4000
1,-56,-81,132,42,4000,-4000,4000,-4000
1,-78,-109,215,25,4000,-4000,2777,-4000
1,-74,-152,244,-11,4000,-4000,1538,-4000
1,-55,-232,290,-49,4000,-4000,1475,-4000
1,-80,-218,297,-46,4000,-3169,1137,-4000
1,-9,-106,385,-24,-2110,-1030,885,-4000
1,-18,-38,280,18,-4000,-176,498,-4000
1,-16,-36,269,20,-4000,693,1475,-4000
1,39,-10,259,-61,-4000,1506,1410,-4000
1,10,-3,253,-32,-4000,2243,1406,-4000
1,10,-27,89,38,-4000,3552,934,-4000
1,-16,-22,9,170,-4000,4000,922,-4000
1,-32,-27,34,134,-4000,4000,669,-4000
1,-60,-31,79,89,-4000,4000,-159,-4000
1,-50,-71,100,-31,-4000,4000,-907,-4000
1,-66,-92,35,-442,-4000,4000,-1462,-4000
1,-78,-19,55,-591,-4000,4000,-1914,-4000
1,-20,-12,4,-576,-4000,4000,-2705,-4000
1,-61,62,-71,-511,-4000,4000,-3446,-4000
1,-104,193,-144,-359,-4000,4000,-4000,-4000
1,-104,355,-47,-76,-4000,4000,-4000,-4000
1,22,607,112,280,-4000,3735,-4000,-4000
1,214,550,288,206,3837,1734,-4000,-4000
1,139,65,191,158,4000,2223,-4000,-4000
1,15,-261,59,44,4000,3526,-4000,-4000
1,-24,-340,-82,42,4000,4000,-4000,-4000
1,-15,-486,-128,16,4000,4000,-4000,-3777
1,55,-442,-96,56,4000,4000,-4000,-1648
1,-1,-164,-121,-91,4000,4000,-4000,1000
1,-23,21,-178,-44,4000,4000,-4000,2078
1,-54,-102,-177,33,4000,4000,-4000,2309
1,-78,-219,-152,11,4000,888,-4000,2816
1,-22,-3,-63,-140,4000,-4000,-4000,2164
1,24,465,-25,-344,4000,-4000,-4000,747
1,4,587,42,-171,4000,-4000,-4000,-673
1,-76,412,269,329,-1489,-4000,-4000,564
1,34,245,622,508,-3978,4000,-3342,3943
1,84,-106,540,382,-3925,4000,-2402,4000
1,81,-120,145,384,-4000,4000,-1655,4000
1,90,-291,-21,264,-4000,4000,-1250,4000
1,31,-347,-342,69,-4000,4000,-501,4000
1,-23,-80,-515,-44,-4000,2484,219,4000
1,-17,53,-595,-114,-4000,-4000,558,4000
1,15,290,-609,-144,-4000,-4000,238,4000
1,-36,590,-409,-193,-4000,-4000,453,4000
1,120,550,15,-206,-4000,-4000,4000,3404
1,113,456,63,-147,-103,-4000,4000,3161
1,1,172,31,-135,4000,-4000,4000,2117
1,-93,-27,130,-185,4000,-4000,3738,2225
1,-161,-122,569,-181,4000,-4000,2232,4000
1,-229,-266,1035,-192,4000,-4000,616,4000
1,-214,-304,1387,-196,4000,-4000,-902,4000
1,-227,-383,1770,-98,4000,-4000,-1767,4000
1,-134,-399,1548,-23,4000,-4000,-1877,4000
1,-69,-430,683,-36,4000,-4000,-892,4000
1,-53,-570,-257,-129,4000,-4000,212,4000
1,-78,-536,-776,-41,4000,-4000,53,4000
1,-58,-43,-178,-49,4000,-4000,-1076,3457
1,-99,398,241,-26,4000,-4000,-1739,2628
1,-68,512,172,-57,4000,-4000,-1185,1977
1,1,513,-171,-29,4000,-4000,11,878
1,82,384,-580,-15,4000,-4000,-312,434
1,163,168,-810,-9,4000,-4000,-2142,1765
1,142,-98,-1397,68,4000,-3620,-2939,3079
1,65,-259,-1524,91,4000,-2960,-3591,4000
1,13,-280,-1577,90,4000,-2307,-4000,4000
1,8,-243,-1769,121,4000,-1526,-4000,4000
1,-12,-257,-1362,89,4000,-513,-3717,4000
1,-18,-231,-1215,29,4000,53,-2728,3845
1,29,-25,-463,-6,3363,481,-2821,2954
1,78,17,724,-22,945,784,-3798,922
1,61,55,736,3,-1263,1277,-4000,-843
1,69,247,132,-14,-3535,1734,-3532,-236
1,32,117,157,-63,-4000,2125,-3928,1598
1,-2,-85,-19,-107,-4000,2644,-4000,2639
1,3,-196,-187,-49,-4000,3357,-4000,2042
1,-16,-444,-737,-4,-4000,4000,-4000,1533
1,-7,-467,-1028,22,-4000,4000,-4000,890
1,-5,-421,-678,25,-4000,4000,-4000,-720
1,-3,-325,-482,-17,-4000,4000,-4000,-1664
1,-35,-215,35,50,-4000,4000,-4000,-736
1,-130,-133,-91,60,-4000,4000,-4000,824
1,-144,131,142,47,-4000,4000,-4000,1663
1,-96,253,484,25,-4000,4000,-3965,3055
1,-58,160,475,26,-4000,4000,-4000,3666
1,-56,8,410,-8,-4000,4000,-4000,3540
1,-70,-26,43,45,-4000,4000,-4000,2437
1,-54,-23,191,167,-4000,4000,-4000,377
1,6,90,244,156,-4000,4000,-4000,-2280
1,49,127,484,128,-4000,4000,-4000,-4000
1,59,34,439,105,-4000,4000,-4000,-4000
1,110,157,337,64,-4000,4000,-4000,-4000
1,142,227,858,14,-4000,4000,-4000,-3539
1,98,270,1314,-87,-4000,4000,-4000,-2494
1,119,441,1019,-202,-1915,4000,-4000,-1998
1,164,506,544,-197,1539,4000,-3342,-2401
1,139,412,296,-149,4000,4000,-3407,-3154
1,89,256,-92,-25,4000,4000,-3591,-3864
1,65,155,147,74,4000,4000,-3326,-4000
1,61,133,284,41,4000,4000,-2549,-3912
1,32,95,492,44,4000,4000,-2044,-3671
1,-9,-105,598,69,4000,4000,-1051,-4000
1,-13,-247,736,101,4000,4000,-420,-4000
1,-4,-272,831,89,4000,3609,-477,-4000
1,-72,-416,1257,65,4000,2970,-731,-4000
1,-116,-278,2474,44,4000,2255,-1262,-4000
1,-79,-6,2811,27,4000,1547,-2061,-4000
1,-21,77,2016,60,4000,1157,-3277,-4000
1,-16,224,830,20,4000,1026,-4000,-4000
1,-46,477,-60,-60,4000,1083,-4000,-4000
1,-22,550,-1427,-119,4000,1515,-4000,-4000
1,-43,401,-2810,-166,4000,1862,-2408,-4000
1,-88,-314,-2223,-76,4000,-615,4000,-4000
1,-97,-146,-1230,-21,4000,-1261,4000,-4000
1,-66,-114,392,-47,4000,-2014,4000,-4000
1,-87,-72,2073,15,4000,-2853,4000,-4000
1,-52,-24,2158,64,4000,-3635,4000,-4000
1,-10,16,2343,23,4000,-4000,4000,-3870
1,-21,-10,2526,34,4000,-4000,4000,-2881
1,17,-98,1410,1,4000,-4000,4000,-2230
1,17,-105,278,18,4000,-4000,4000,-1664
1,30,-86,-682,12,4000,-3962,4000,-1005
1,34,-73,-1212,-21,4000,-3144,4000,-324
1,43,-88,-1367,-84,3837,-2246,4000,446
1,90,-158,-1407,-100,1568,-1054,4000,1411
1,21,-187,-1063,-98,-1796,307,4000,2770
1,-2,-139,-843,-121,-4000,1704,4000,4000
1,-25,-150,-503,-75,-4000,3292,4000,4000
1,-102,-135,-178,-66,-4000,4000,4000,4000
1,-124,-113,231,-54,-4000,4000,4000,4000
1,-80,-30,562,-69,-4000,4000,4000,4000
1,-37,-49,777,-23,-4000,4000,4000,4000
1,-20,-43,1501,9,-4000,4000,4000,4000
1,-73,37,1279,-15,-4000,4000,4000,4000
1,-94,17,683,-25,-4000,4000,4000,4000
1,-56,18,982,-19,-4000,4000,2191,4000
1,-64,27,610,-33,-4000,4000,211,4000
1,-59,64,-759,-149,-4000,4000,-1462,4000
1,-75,43,-1451,-198,-4000,4000,-3212,4000
1,-45,69,-1259,-251,-4000,4000,-4000,4000
1,-38,103,-1362,-251,-4000,4000,-4000,4000
1,-48,112,-1274,-212,-4000,4000,-4000,4000
1,-30,135,-761,-198,-4000,4000,-4000,4000
1,-26,133,116,-90,-4000,4000,-4000,4000
1,-12,142,801,-20,-4000,4000,-4000,4000
1,-43,127,646,150,-4000,4000,-4000,4000
1,-12,139,596,240,-4000,4000,-4000,4000
1,32,168,976,179,-4000,4000,-4000,3991
1,81,181,1894,238,-4000,3491,-4000,2965
1,86,131,2133,227,-4000,2758,-4000,2510
1,159,66,1184,38,-4000,1774,-4000,2176
1,325,10,445,-145,-4000,658,-4000,1859
1,389,-8,-381,-137,-4000,-667,-4000,1915
1,257,-31,-881,-133,-4000,-1851,-4000,1850
1,141,-114,-1144,-151,-4000,-3101,-4000,1411
1,-6,-171,-1147,-141,-4000,-4000,-4000,1006
1,-279,-183,-341,-116,-4000,-4000,-4000,817
1,-359,-146,1247,-121,-4000,-4000,-4000,581
1,-68,-265,410,80,-2271,-4000,-4000,-1650
1,-92,-346,-1619,32,-108,-4000,-4000,-1986
1,125,288,-869,40,-2010,-4000,-3326,-3931
1,237,309,272,-51,-724,-4000,-2204,-3480
1,226,332,207,30,358,-4000,-538,-3072
1,298,325,-163,34,-547,-4000,-22,-3200
1,660,201,720,68,556,-4000,-538,-3539
1,595,127,272,89,2711,-4000,-2679,-3805
1,292,44,-513,67,3102,-4000,-4000,-3539
1,204,-107,-143,48,2813,-4000,-4000,-3659
1,38,-226,980,-37,3334,-4000,-4000,-3931
1,29,-375,2592,-137,4000,-4000,-3977,-3319
1,-580,3,1989,-102,4000,-4000,4000,-1203
1,-518,200,109,-114,4000,-4000,4000,-333
1,-327,199,-1488,49,4000,-4000,4000,827
1,-42,-29,-2497,53,4000,-4000,4000,-639
1,182,-31,-1547,-53,4000,-4000,2823,-1902
1,226,95,33,-8,4000,-3962,211,-3740
1,154,58,1610,171,4000,-3569,-967,-3462
1,146,-104,2486,172,4000,-2998,113,-2746
1,86,-232,2910,92,4000,-2218,3429,-2509
1,322,-202,2551,-12,4000,-1199,4000,-2090
1,695,-244,1228,-34,4000,-56,4000,-1143
1,686,-257,288,-113,4000,1098,4000,-396
1,528,-104,467,-186,4000,2295,4000,-753
1,436,60,749,-164,2320,3398,4000,-687
1,25,154,1175,80,513,4000,4000,-1018
1,-178,90,1886,209,-1440,4000,4000,-1042
1,78,77,2461,183,-4000,4000,4000,-639
1,21,-8,1444,-55,-4000,4000,4000,-69
1,-354,-234,-2497,-26,-4000,4000,4000,-370
1,-260,4,-1832,261,-4000,4000,-4000,1091
1,465,-226,-1231,168,-4000,4000,-4000,1142
1,1238,-351,-562,95,-4000,4000,-4000,938
1,1345,-158,2158,-196,-4000,3472,-4000,1635
1,953,-18,960,-104,-4000,3426,-4000,1207
1,697,38,387,76,-4000,3396,-4000,1715
1,603,-31,759,6,-4000,3339,-4000,2445
1,849,144,2158,85,-4000,3212,-3390,2485
1,346,110,2811,89,-4000,2840,-1582,2371
1,-1416,-232,1630,329,-4000,-4000,4000,-4000
1,-1278,-340,-976,59,-4000,-4000,4000,-2069
1,-420,-214,-1933,-38,4000,-4000,4000,14
1,428,-117,-2479,-436,4000,-4000,4000,947
1,790,-163,-2670,-704,4000,-4000,4000,1138
1,964,-76,-1679,-119,4000,-4000,-528,1150
1,851,109,-47,-151,4000,-4000,1247,1654
1,788,5,-603,-218,4000,-3921,4000,1964
1,1419,-46,-257,-106,4000,-349,4000,2030
1,1018,37,677,-30,4000,2450,4000,2354
1,234,109,1289,170,4000,4000,4000,2182
1,501,212,1703,292,4000,4000,4000,1834
1,256,239,853,-38,4000,-2353,4000,1635
1,149,138,-761,-155,-781,-4000,4000,1460
1,-193,-3,-2086,-306,-4000,-4000,4000,1272
1,-1365,-10,-2436,-499,-4000,-4000,4000,1077
1,-1300,198,-2127,-387,-4000,-4000,1825,491
1,-713,164,-1939,-446,-4000,2904,-1291,225
1,-270,146,-1671,-409,-4000,4000,-4000,-49
1,86,176,-609,-610,-4000,4000,-4000,-294
1,-117,210,1175,-564,-2740,4000,-4000,-418
1,-779,21,2345,-336,-1658,4000,-4000,-415
1,-1170,-72,1680,-271,-1459,4000,-4000,-403
1,-1105,-15,328,-123,-795,4000,-4000,-411
1,-885,-29,-182,-34,1378,2971,-4000,-370
1,-908,-64,-731,-7,2646,-3470,-4000,-297
1,-566,-36,-963,-157,4000,-4000,-4000,-357
1,110,-31,-1191,-245,4000,-4000,-4000,-411
1,567,-49,-450,-183,4000,-4000,-4000,-382
1,908,-3,854,-260,4000,-4000,-4000,-321
1,964,-83,349,-214,4000,-4000,-4000,-468
1,1093,-188,434,20,4000,-4000,-4000,-649
1,1065,-181,1234,141,4000,-4000,-4000,-899
1,977,-150,526,134,4000,-4000,-4000,-987
1,929,19,-711,52,4000,-4000,-4000,-882
1,774,114,-1035,55,4000,-4000,-4000,-843
1,721,120,-959,168,4000,-637,-4000,-832
1,485,217,-1488,246,4000,4000,-4000,-1062
1,460,171,-1451,262,4000,4000,-4000,-1018
1,334,136,-840,130,4000,4000,-4000,-846
1,214,113,-150,73,4000,4000,-4000,-531
1,200,95,658,60,4000,4000,-4000,-295
1,70,224,1422,84,4000,4000,-4000,-136
1,-30,224,2412,140,4000,4000,-4000,597
1,-195,160,2225,221,4000,4000,-3794,2816
1,-31,217,713,268,4000,4000,-2577,3404
1,147,217,-143,341,4000,4000,-1641,3845
1,674,195,318,443,4000,4000,-552,3845
1,825,186,1509,469,4000,4000,246,3912
1,399,224,1965,447,4000,4000,342,3939
1,126,215,1704,410,1568,4000,319,3788
1,-64,186,727,426,-4000,4000,315,3747
1,-246,168,-393,390,-4000,4000,-161,3617
1,-317,79,-1427,337,-4000,4000,-1209,3548
1,-453,64,-2004,341,-4000,4000,-2508,3226
1,-566,25,-1787,381,-4000,4000,-3171,2704
1,-564,-25,-469,425,-4000,4000,-3257,2563
1,-404,66,152,431,-4000,4000,-4000,2675
1,-457,106,-803,459,-4000,4000,-4000,2628
1,-605,39,-1126,512,-4000,4000,-4000,1859
1,-409,6,-1427,469,-4000,1787,-4000,1352
1,-295,-27,-1427,244,-4000,-662,-4000,1071
1,-188,-49,-1345,75,-4000,-3051,-4000,296
1,22,-59,-1227,134,-4000,-4000,-4000,-588
1,117,-66,-213,33,-4000,-4000,-4000,-1438
1,127,-53,337,40,-4000,-4000,-4000,-2150
1,95,-53,663,76,-4000,-4000,-4000,-3462
1,104,-72,573,-8,-4000,-4000,-3688,-3349
1,123,-82,126,23,-4000,-4000,-2792,-1469
1,214,-42,33,95,-4000,-4000,-2968,-549
1,260,-66,-6,211,-4000,-4000,-3082,-687
1,51,-39,198,207,-4000,-4000,-2855,-883
1,-77,-49,476,163,-4000,-4000,-2223,-1143
1,-126,-45,632,48,-4000,-4000,-2384,-1774
1,-170,-39,854,-184,-4000,-4000,-2288,-2218
1,-230,-73,970,-247,-4000,-4000,-2097,-3439
1,-186,-73,728,-137,-4000,-4000,-1944,-4000
1,-150,-87,642,-226,-4000,-4000,-1783,-4000
1,-161,-42,596,-253,-4000,-4000,-1645,-4000
1,-87,-22,183,-214,-4000,-4000,-1523,-4000
1,-152,-32,-146,-355,-4000,-4000,-726,-4000
1,-75,-26,-311,-428,-4000,-4000,2161,-3333
1,-27,1,-302,-623,-2757,-4000,4000,-3345
1,-7,13,-124,-643,-1462,-4000,4000,-3540
1,74,8,22,-603,12,-4000,4000,-3777
1,135,12,297,-717,1863,-4000,4000,-4000
1,159,-32,854,-610,2906,-4000,4000,-4000
1,149,-57,830,-440,4000,-4000,4000,-3925
1,151,-96,223,-320,4000,-4000,4000,-3724
1,112,-133,-26,-163,4000,-3714,4000,-3280
1,118,-112,-427,-37,4000,-2869,4000,-2862
1,94,-78,-773,76,4000,-2061,4000,-2429
1,122,-90,-950,276,4000,-1461,4000,-2283
1,176,-146,-927,484,4000,-1160,4000,-1957
1,136,-199,-682,559,4000,-924,4000,-1599
1,47,-194,-580,508,4000,-276,4000,-1530
1,-25,-153,-393,106,4000,-22,4000,-1204
1,-3,-145,-212,-119,4000,-779,4000,-458
1,28,-179,-20,141,4000,-1075,4000,535
1,51,-207,36,231,4000,-794,4000,1374
1,100,-127,148,320,4000,-410,4000,2176
1,105,-53,229,139,4000,-36,4000,3079
1,12,24,237,-255,4000,1331,4000,3803
1,12,237,181,-490,4000,2904,4000,4000
1,90,390,41,-436,4000,2871,4000,4000
1,126,398,-66,7,4000,2905,4000,4000
1,120,341,-96,140,4000,2503,4000,4000
1,98,244,19,232,4000,823,4000,4000
1,-6,52,20,431,4000,168,4000,4000
1,-161,-72,55,549,4000,2100,4000,4000
1,20,-374,34,390,4000,508,-4000,927
1,44,-167,6,-32,4000,1075,-4000,471
1,39,158,-3,-690,3619,1344,-4000,178
1,-20,363,112,-503,1580,1799,-4000,-513
1,25,197,266,549,416,1643,-4000,-557
1,50,-59,96,628,-478,2188,-4000,-181
1,-30,-221,-20,258,-839,2373,-4000,-104
1,-79,-393,-84,-433,-2484,2580,-4000,128
1,-44,-300,-153,-637,-2574,1531,-4000,239
1,-66,-169,-218,-328,-812,2,-4000,288
1,-40,-15,-248,-316,-1264,-1290,-4000,419
1,12,40,-229,-107,-2289,-3374,-4000,521
1,42,-101,-144,-45,-1821,-4000,-4000,484
1,26,-121,-75,248,-2937,-2705,-4000,341
1,-35,3,24,598,-3978,-1588,-4000,239
1,-118,85,-6,244,-3533,-1568,-4000,123
1,-136,-50,-11,108,-3456,-1780,-4000,276
1,-125,-174,17,-153,-3773,-2093,140,817
1,-89,-240,-44,-42,-4000,-2900,3950,1199
1,-88,-356,-133,-262,-4000,-2896,4000,1496
1,-60,-369,-111,-676,-4000,-3209,4000,2110
1,-20,-111,-5,-784,-4000,-4000,4000,3210
1,-45,328,-29,-754,-4000,-4000,4000,2753
1,-39,383,-47,-212,-4000,-4000,4000,2498
1,-86,371,-106,115,-4000,-4000,4000,2354
1,-90,347,-180,310,-3779,-3968,4000,2498
1,-120,281,-285,364,-2706,-2872,4000,2184
1,-89,213,-328,366,-2423,-1522,4000,1590
1,-52,180,-267,489,-2740,180,4000,1270
1,-25,81,-225,558,-2057,1144,4000,1207
1,10,27,-120,329,-770,795,4000,760
1,6,-3,45,102,541,1157,4000,34
1,-47,-88,116,-377,1641,1704,4000,-793
1,-25,-173,201,-717,3623,990,4000,-1583
1,48,-284,84,-210,4000,758,4000,-1622
1,-43,253,76,-168,4000,-1107,4000,-4000
1,77,-168,451,-271,4000,3930,641,-4000
1,98,-211,580,283,4000,2580,-2401,-4000
1,61,-188,457,467,4000,2893,-4000,-4000
1,-16,-155,243,590,4000,3137,-4000,-4000
1,-93,-6,-42,522,2443,1638,-4000,955
1,-90,-146,-160,170,757,1114,-4000,2176
1,-109,-247,-207,8,-449,433,-4000,3404
1,-96,-351,-223,158,-2252,-202,-4000,3991
1,-73,-395,-252,548,-4000,-802,-4000,4000
1,-24,-364,-254,573,-4000,-1336,-4000,4000
1,1,-362,-185,134,-4000,-1642,-4000,4000
1,-10,-356,-144,-20,-4000,-1848,-4000,4000
1,6,-203,-133,-245,-4000,-1946,-4000,4000
1,25,-76,-13,-357,-4000,-1916,-4000,4000
1,39,10,-60,-505,-4000,-1908,-4000,3806
1,84,152,-2,-564,-4000,-1851,-4000,3161
1,110,256,325,-324,-4000,-1814,-4000,2636
1,100,304,337,-57,-4000,-1780,-4000,1850
1,121,332,-84,113,-4000,-1461,-4000,1032
1,50,363,-340,93,-4000,-1196,-4000,890
1,-6,341,-555,-32,-4000,-745,-4000,462
1,48,279,-682,-121,-4000,-56,-4000,-79
1,32,172,-668,-152,-4000,510,-4000,-1018
1,-50,94,-620,-173,-4000,1012,-3342,-1774
1,-157,102,-432,-153,-4000,1313,-1766,-2035
1,-210,84,-316,-185,-4000,1205,-251,-2429
1,-224,26,-224,-167,-4000,819,1591,-2619
1,-161,70,-148,-173,-4000,260,3918,-2580
1,-89,112,-65,-164,-4000,-190,4000,-2462
1,-29,-6,30,-251,-4000,410,4000,-2712
1,27,-82,84,-175,-4000,1710,4000,-3126
1,-13,-105,402,55,-4000,2709,4000,-2798
1,7,-111,817,39,-4000,3463,4000,-2046
1,25,-83,708,-64,-4000,3810,4000,-1524
1,9,-110,402,-226,-4000,4000,4000,-1078
1,-31,-197,150,-350,-4000,4000,4000,-883
1,-37,-194,15,-381,-4000,4000,4000,-533
1,-55,-131,99,-487,-4000,4000,4000,-217
1,-130,-83,-154,-446,-4000,3686,4000,208
1,-97,-86,-339,-359,-4000,2568,4000,981
1,-33,-102,-490,-303,-2000,2580,4000,1329
1,1,-122,-620,-196,2296,2580,4000,1069
1,-8,-130,-609,-285,4000,1018,4000,825
1,-54,-48,-589,-387,4000,-1516,4000,1065
1,3,-11,-182,-418,4000,-3524,4000,1207
1,45,-22,-14,-466,4000,-3600,4000,1468
1,24,-23,68,-428,4000,-3441,4000,1698
1,25,-2,145,-348,4000,-3895,4000,1771
1,82,-3,150,-160,4000,-4000,4000,1859
1,508,28,533,134,4000,-4000,4000,1924
1,973,124,1348,426,4000,-4000,4000,2097
1,927,225,1422,624,2060,-4000,4000,2054
1,554,317,213,541,-1658,-4000,4000,2054
1,194,233,-312,423,-4000,-4000,4000,1985
1,-114,98,-746,375,-4000,-4000,4000,1857
1,-221,4,-841,245,-4000,-4000,4000,1696
1,-294,-64,-580,166,-4000,-4000,4000,1460
1,-331,-79,-620,91,-4000,-4000,3134,1384
1,-314,-129,-299,-13,-4000,-4000,1735,1338
1,-492,-188,57,-84,-4000,-1701,91,1270
1,-404,-247,524,-153,-4000,1279,-1653,1258
1,-213,-306,697,-219,-4000,3735,-3053,1272
1,144,-242,260,-279,-4000,4000,-4000,1346
1,629,-112,-364,-198,-4000,4000,-4000,1533
1,757,-44,-488,-76,-4000,4000,-4000,1671
1,552,24,-442,-9,-4000,4000,-4000,1975
1,28,7,-156,104,-4000,4000,-4000,2313
1,-563,-74,331,244,-4000,4000,-4000,2681
1,-1158,-87,584,199,-4000,4000,-4000,3031
1,-1300,-52,598,41,-4000,4000,-4000,3393
1,-1230,14,854,59,-3639,3670,-4000,3831
1,-1129,28,1302,199,-1916,2308,-4000,4000
1,-843,55,1891,232,-616,853,-4000,4000
1,-498,124,1473,134,472,-320,-3863,4000
1,-75,164,107,166,218,-1030,-3297,4000
1,112,207,6,323,-1251,-536,-2963,4000
1,90,172,-438,341,-2955,947,-2097,4000
1,147,157,-932,203,-3408,2373,-939,4000
1,183,132,-1259,40,-3456,3621,216,4000
1,69,130,-1521,-49,-3343,4000,1145,4000
1,139,144,-1028,15,-2708,4000,1931,4000
1,465,103,-413,64,-1731,4000,2700,4000
1,640,66,139,10,-343,4000,3364,4000
1,105,3,-151,150,754,4000,3852,3747
1,-190,20,-334,369,1258,4000,3795,3393
1,74,3,-1406,454,1192,4000,3555,2935
1,399,-57,-2127,524,570,3751,3103,2498
1,1098,-21,-1819,459,-269,2182,2558,2097
1,1000,54,-1847,377,-565,237,2183,1704
1,452,24,-1226,329,216,-1562,1825,1313
1,-156,-44,-906,248,806,-2172,1540,864
1,-517,-116,-427,171,-409,-1959,1329,349
1,-445,-179,374,-17,-3327,-1851,1076,-146
1,-313,-214,651,-206,-4000,-1568,637,-624
1,195,-171,936,-389,-4000,-1196,368,-1058
1,281,-88,1119,-558,-4000,-1336,197,-1339
1,408,-52,1485,-617,-4000,-1526,-87,-1577
1,325,-5,2225,-654,-4000,-1875,-264,-1860
1,-7,-3,2875,-676,-3456,-2500,-447,-2413
1,-197,82,1573,-307,485,-3894,-802,-4000
1,674,171,-171,-102,-2470,-3789,-433,-4000
1,1189,262,-1547,118,-4000,-3377,-387,-4000
1,1030,152,-2851,303,3837,-1546,-570,-4000
1,619,-4,-2822,156,4000,-571,-1136,-4000
1,391,-32,-1779,-17,4000,772,-1754,-4000
1,827,-77,-711,-8,4000,2359,-2162,-4000
1,1222,-130,105,110,4000,4000,-2707,-4000
1,241,-181,677,65,4000,4000,-3266,-4000
1,-453,-86,380,-186,4000,4000,-3599,-4000
1,-1045,30,172,-365,4000,4000,-3898,-4000
1,-1345,130,651,199,4000,4000,-4000,-3839
1,-1267,273,1003,182,4000,4000,-3816,-3724
1,-1296,195,1052,124,4000,4000,-3379,-3630
1,-848,95,836,115,4000,4000,-3061,-3504
1,-753,189,1,118,4000,4000,-2855,-3305
1,-858,247,-696,83,4000,4000,-2774,-3057
1,-966,254,-348,132,4000,4000,-2781,-2781
1,-1170,245,328,183,4000,4000,-2939,-2385
1,-1003,261,488,233,4000,4000,-2988,-1996
1,-75,200,231,177,4000,4000,-2781,-1656
1,1112,-27,103,134,4000,4000,-2247,-1269
1,717,-56,43,-123,1388,4000,-1201,-597
1,253,-15,1473,-277,-234,2580,-1311,-234
1,979,-58,2266,-300,-616,-851,-1428,62
1,774,-118,-674,255,-2574,-4000,-2027,1338
1,-266,50,-259,317,-1422,-4000,-3064,1671
1,-771,126,-551,305,1082,-4000,-4000,2023
1,-1365,69,-488,189,4000,-4000,-4000,2283
1,-680,81,-613,112,4000,-4000,-1901,2437
1,-159,-129,-749,-198,4000,-4000,1333,2485
1,1173,-225,-328,-515,4000,-4000,4000,2575
1,1482,-306,265,-255,4000,-4000,4000,3539
1,695,-364,20,33,4000,-4000,4000,3604
1,-111,-354,-710,95,4000,-4000,4000,3534
1,-583,-272,-976,37,4000,-4000,4000,3226
1,-510,-179,-1406,133,4000,-4000,4000,2835
1,-779,-135,-1944,85,4000,-4000,4000,2348
1,-683,-34,-2170,5,4000,-4000,4000,1793
1,-445,-29,-1980,-84,4000,-4000,4000,1303
1,-942,99,-1297,-159,4000,-4000,69,787
1,-1430,262,-1061,-94,4000,-4000,-4000,279
1,-1255,52,1212,170,4000,-4000,-4000,-1298
1,-1365,-153,1633,108,4000,-4000,-4000,-1860
1,-1045,-181,724,-112,4000,-4000,-4000,-2491
1,-272,-201,793,-300,4000,-4000,-4000,-3089
1,537,-102,1086,-430,4000,-4000,-4000,-3659
1,1059,-80,2006,-603,1930,-4000,-4000,-4000
1,1408,-133,2615,-763,-2194,-4000,-3516,-4000
1,1535,38,1951,-640,-4000,-4000,270,-4000
1,790,345,1249,-325,-4000,-4000,2086,-4000
1,-350,374,651,-44,-4000,-3661,4000,-4000
1,-435,247,1314,4,-4000,-2662,4000,-4000
1,-81,148,1605,-18,-4000,-1717,4000,-4000
1,149,251,996,95,-4000,-1020,4000,-4000
1,74,347,-450,81,-4000,-612,4000,-4000
1,183,127,-1665,1,-4000,8,4000,-4000
1,224,117,-2398,24,-4000,273,4000,-4000
1,-779,-57,-2479,125,-4000,707,3612,-4000
1,-1430,-81,-1143,124,-4000,888,-2676,-4000
1,-1294,-141,1003,-15,-4000,1120,-4000,-4000
1,-858,-70,2412,-206,-4000,1417,-4000,-4000
1,-457,-3,2421,-297,-4000,1929,-4000,-4000
1,269,-103,1127,-133,-4000,2448,-4000,-4000
1,603,-108,-768,-4,-4000,3036,-4000,-4000
1,721,-83,-1126,41,-4000,3807,-4000,-4000
1,895,3,-1286,219,-4000,4000,-4000,-4000
1,790,32,-1846,215,-4000,4000,-4000,-4000
1,566,-21,-1612,215,-4000,4000,-4000,-4000
1,538,-130,-1041,164,-4000,4000,-4000,-4000
1,365,-215,-324,20,-4000,4000,-4000,-4000
1,595,-211,882,25,-4000,4000,-4000,-4000
1,863,-205,2213,92,-4000,4000,-4000,-4000
1,668,-118,2729,232,-4000,4000,-4000,-4000
1,477,51,2680,303,-4000,4000,-4000,-4000
1,391,215,2771,206,-3258,4000,-4000,-2746
1,204,195,2160,43,-1201,3611,-4000,3731
1,122,144,677,30,-103,1990,-4000,4000
1,23,-24,-613,111,-1658,747,-4000,4000
1,-185,-232,-1061,264,-4000,-74,-4000,4000
1,-216,-423,-1353,219,-4000,-212,-4000,4000
1,-16,-440,-1201,67,-4000,410,-1853,4000
1,243,-215,-948,-9,-4000,1567,4000,4000
1,275,-91,-579,-179,-4000,2840,4000,4000
1,256,113,157,-132,-4000,3930,4000,4000
1,295,327,-20,122,-4000,4000,4000,4000
1,208,374,-377,189,-4000,4000,4000,4000
1,97,305,-345,134,-4000,4000,4000,4000
1,19,217,179,219,-4000,4000,4000,4000
1,-50,168,728,221,-4000,4000,4000,4000
1,-123,149,1003,227,-4000,4000,4000,4000
1,-126,76,1368,170,-4000,4000,3810,4000
1,-109,0,580,69,-4000,4000,4000,4000
1,-155,3,-617,75,-4000,4000,4000,4000
1,-128,5,-1072,1,-4000,4000,4000,4000
1,-156,52,-1646,-41,-4000,4000,3738,4000
1,-193,99,-1492,-15,-4000,4000,-3729,4000
1,-71,76,-1166,-75,-3785,4000,-4000,4000
1,86,48,-776,-116,-3391,4000,-4000,4000
1,137,-22,-580,-157,-1658,4000,-4000,4000
1,131,-88,-773,-156,2293,4000,-4000,4000
1,95,-92,-532,-88,4000,4000,-4000,4000
1,-43,-192,-625,-28,4000,4000,-4000,3666
1,-58,-183,-501,59,4000,4000,-4000,1509
1,74,-24,-245,134,4000,4000,-4000,-1204
1,135,12,59,248,4000,4000,-4000,-2881
1,188,40,280,337,4000,4000,-4000,-3349
1,128,107,402,272,4000,4000,-4000,-4000
1,-85,139,764,190,4000,4000,-4000,-4000
1,-272,158,1088,134,4000,4000,-4000,-4000
1,-427,152,1161,73,4000,134,-4000,-4000
1,-371,115,1096,54,4000,-3270,-4000,-4000
1,-246,59,1101,14,4000,-4000,-4000,-4000
1,-221,-56,800,-71,4000,-4000,-4000,4000
1,-99,-139,528,-115,4000,-4000,4000,4000
1,4,-188,234,-160,4000,-4000,4000,4000
1,79,-231,123,-136,4000,-4000,4000,4000
1,78,-191,181,-59,4000,-4000,4000,4000
1,108,-139,465,-62,-4000,-4000,4000,4000
1,192,-118,1041,-126,-4000,-4000,4000,4000
1,177,-135,1239,-180,-4000,-4000,4000,4000
1,110,-148,1420,-192,-4000,-4000,4000,4000
1,35,-21,1096,-167,-4000,-4000,4000,4000
1,-31,95,244,-145,-4000,-4000,4000,4000
1,-58,122,-201,-224,-4000,-4000,4000,4000
1,-65,142,-710,-186,1482,-4000,-2467,4000
1,-121,62,-1166,-31,2190,-4000,-4000,4000
1,-90,34,-1321,-18,-2900,-4000,-3857,4000
1,-70,34,-1304,-32,-4000,-3051,600,4000
1,-91,67,-1065,12,-4000,-1574,2321,-3237
1,-106,87,-894,-12,-4000,-1430,-3390,-4000
1,-136,34,-737,-155,-4000,-985,-4000,-4000
1,-155,94,-680,-216,-4000,394,-4000,-4000
1,-197,95,-555,-155,-4000,1994,-4000,-4000
1,-207,113,-302,42,-3793,3101,-4000,-4000
1,-141,146,-336,280,1156,3849,-4000,-4000
1,-130,4,-189,290,4000,4000,-2276,-4000
1,-135,-149,-150,142,4000,4000,4000,-4000
1,-85,-213,85,15,4000,4000,4000,-4000
1,-88,-266,410,-105,4000,4000,4000,-4000
1,-92,-243,263,-357,4000,4000,4000,-4000
1,-107,-218,284,-484,4000,4000,4000,-4000
1,-131,-214,30,-346,4000,4000,4000,-4000
1,-170,-68,-86,-113,4000,4000,4000,-4000
1,-135,71,337,166,2188,4000,4000,-4000
1,-95,135,1647,336,-3231,4000,4000,-4000
1,-104,66,2783,221,-4000,4000,4000,-3839
1,-60,-130,2225,-15,-4000,3556,2960,225
1,-75,-264,2213,-210,-4000,3072,954,1572
1,-81,-474,2095,-324,-4000,2800,-612,-333
1,-52,-519,803,-336,-4000,2644,-912,-1697
1,-14,-438,-609,-328,-4000,2775,-143,-2881
1,-71,-460,-1600,-198,-4000,3131,659,-4000
1,-132,-340,-2253,-162,-4000,3231,1092,-3870
1,-169,81,-2658,-166,-4000,2450,1011,-3113
1,180,487,-1414,7,-4000,-2705,-2679,2029
1,263,345,-840,14,-4000,-2754,-3455,4000
1,292,355,-458,85,-4000,-2543,-4000,4000
1,346,335,-201,67,-4000,-2547,-4000,4000
1,235,288,62,55,-1031,-2938,-4000,4000
1,220,132,259,63,4000,-3144,-4000,4000
1,186,5,349,1,4000,-3443,-4000,4000
1,58,-65,622,-16,4000,-3635,-4000,4000
1,-64,135,717,-39,4000,-3529,-4000,4000
1,-76,286,736,-46,4000,-3620,-4000,4000
1,-24,127,793,-17,4000,-3912,-3000,4000
1,-60,110,724,-24,4000,-4000,-851,4000
1,-26,86,724,-10,4000,-4000,-745,4000
1,-3,-42,671,63,4000,-4000,-1653,4000
1,40,-284,637,146,4000,-3234,-1979,4000
1,129,-440,544,195,4000,-2338,-2614,4000
1,108,-423,504,128,4000,-1875,-2483,4000
1,24,-411,425,102,4000,-1912,-2508,4000
1,35,-301,337,171,4000,-1977,220,4000
1,6,-188,284,264,4000,-1873,3918,4000
1,-56,-153,188,252,4000,-1330,4000,4000
1,-123,-305,142,94,4000,-896,4000,4000
1,-209,-375,52,-47,4000,-1010,4000,4000
1,-227,-505,64,-232,4000,-1265,3528,4000
1,-172,-591,64,-279,4000,-1656,1467,4000
1,-116,-416,10,-255,4000,-1902,28,4000
1,-91,-202,9,-347,4000,-1851,-84,4000
1,18,269,-10,-312,4000,-1913,-471,3976
1,62,477,-36,-232,4000,-2218,-1045,2182
1,112,580,-95,23,4000,-2500,-1918,-480
1,175,567,-100,255,282,-3856,1247,-4000
1,180,514,-45,207,-2638,-4000,3360,-4000
1,136,472,-10,172,-4000,-4000,4000,-4000
1,-7,294,-32,113,-4000,-4000,4000,-4000
1,-80,138,24,115,-4000,-4000,4000,-4000
1,-69,29,23,80,-4000,-4000,4000,-4000
1,-89,-52,42,105,-4000,-4000,4000,-4000
1,-123,-83,35,104,-4000,-4000,4000,-4000
1,-79,-146,-30,79,-4000,-3661,4000,-4000
1,-70,-129,11,76,-4000,-2534,3837,-4000
1,-58,-169,299,74,-4000,-1383,3134,-4000
1,-43,-275,516,59,-4000,-362,1982,-4000
1,-59,-320,361,-19,-4000,348,588,-4000
1,-28,-403,205,-78,-4000,1098,-1169,-4000
1,-39,-401,-26,-179,-4000,2045,-2927,-4000
1,13,-257,-178,-267,-4000,3018,-4000,-4000
1,37,-117,-190,-261,-632,4000,-4000,-4000
1,-50,-160,-158,-184,1838,4000,-4000,-4000
1,-41,-223,46,-126,3809,4000,-4000,-4000
1,-19,-153,-197,-137,4000,4000,-4000,-2975
1,-32,-126,-401,-145,4000,4000,-4000,-278
1,-2,-100,-108,-115,4000,4000,-4000,395
1,5,-118,30,-49,4000,4000,-4000,-223
1,9,-5,-243,-19,4000,4000,-4000,-1534
1,9,-7,-225,-38,4000,4000,-4000,-2383
1,13,-50,497,-6,4000,3670,-4000,-2169
1,50,239,917,30,4000,2940,-4000,-2259
1,95,577,386,34,4000,2255,-4000,-2429
1,12,603,-637,111,4000,404,-4000,33
1,105,290,-1007,136,4000,-602,-4000,224
1,131,50,-976,163,4000,-1737,-4000,224
1,111,-109,-753,121,4000,-3039,-4000,1043
1,147,-126,-324,63,4000,-4000,-4000,1372
1,144,-358,-417,11,4000,-4000,-4000,1270
1,106,-448,-279,-24,4000,-4000,-4000,947
1,36,-556,-42,-41,4000,-4000,-4000,329
1,-28,-586,-241,-74,4000,-4000,-4000,394
1,-134,-521,-435,-68,4000,-4000,-4000,1838
1,-269,-468,-801,-14,4000,-4000,-4000,2835
1,-193,-99,-450,2,4000,-4000,-4000,3467
1,-55,263,-247,2,4000,-4000,-4000,4000
1,-79,514,-635,-38,2451,-3405,-4000,4000
1,-54,615,-894,-97,143,-354,-4000,4000
1,7,542,-1147,-43,-1818,1856,-3247,4000
